542.0,187.0,170.0,106.0,269.0,73.0,81.0,99.0,9.033333333333333,3.1166666666666667,2.8333333333333335,1.7666666666666666,4.483333333333333,1.2166666666666666,1.35,1.65,12.651745597610894,3.9644251369734134,3.605551275463989,2.1908902300206643,5.533232930816004,1.6583123951777,1.6782927833565473,2.0453198608856593,9604.0,943.0,780.0,288.0,1837.0,165.0,169.0,251.0,79.79548022598871,6.104802259887003,5.056497175141244,1.7073446327683615,10.694632768361581,1.2912429378531065,1.0110169491525423,1.485593220338983,953.0,287.0,226.0,137.0,422.0,112.0,101.0,138.0,1.0
604.0,234.0,174.0,102.0,308.0,71.0,63.0,100.0,10.066666666666666,3.9,2.9,1.7,5.133333333333334,1.1833333333333333,1.05,1.6666666666666667,12.806248474865697,4.8166378315169185,3.719318934070233,2.265686062395524,7.7631608682718065,1.5758595538097084,1.3102162671355697,2.041241452319315,9840.0,1392.0,830.0,308.0,3616.0,149.0,103.0,250.0,63.72429378531073,8.125423728813562,5.515254237288138,2.2813559322033896,34.490395480226,1.1014124293785323,0.6245762711864404,1.4124293785310729,925.0,375.0,258.0,164.0,536.0,97.0,68.0,131.0,1.0
489.0,247.0,170.0,113.0,293.0,71.0,75.0,109.0,8.15,4.116666666666666,2.8333333333333335,1.8833333333333333,4.883333333333334,1.1833333333333333,1.25,1.8166666666666667,11.124297730643494,5.149433625814266,3.5683796509527026,2.479919353527449,7.379024325749306,1.5329709716755893,1.6583123951777,2.3057898140695015,7425.0,1591.0,764.0,369.0,3267.0,141.0,165.0,319.0,58.29915254237291,9.7319209039548,4.785310734463276,2.6471751412429385,31.121751412429393,0.9658192090395497,1.2076271186440677,2.0505649717514123,769.0,393.0,235.0,168.0,501.0,88.0,100.0,151.0,1.0
449.0,217.0,176.0,115.0,267.0,75.0,64.0,95.0,7.483333333333333,3.6166666666666667,2.933333333333333,1.9166666666666667,4.45,1.25,1.0666666666666667,1.5833333333333333,9.562949335848225,4.674398357008098,3.488074922742725,2.404856198057034,5.593150573096825,1.52206000757745,1.449137674618944,2.101586702153082,5487.0,1311.0,730.0,347.0,1877.0,139.0,126.0,265.0,36.05056497175141,8.918361581920903,3.622598870056495,2.1454802259887007,11.67542372881357,0.7669491525423728,0.9785310734463282,1.9420903954802249,636.0,375.0,233.0,170.0,418.0,103.0,90.0,136.0,1.0
531.0,225.0,191.0,117.0,260.0,70.0,71.0,102.0,8.85,3.75,3.183333333333333,1.95,4.333333333333333,1.1666666666666667,1.1833333333333333,1.7,12.149759942758815,4.72405193310432,4.035261247222208,2.5132979661525745,5.8395205282625735,1.559914527573012,1.466287829861518,2.160246899469287,8857.0,1339.0,977.0,379.0,2046.0,146.0,129.0,280.0,70.46864406779663,8.39406779661017,6.253954802259887,2.55677966101695,15.581920903954803,1.0903954802259894,0.7624293785310735,1.806779661016949,901.0,368.0,280.0,177.0,430.0,98.0,95.0,152.0,1.0
526.0,181.0,158.0,117.0,290.0,72.0,71.0,107.0,8.766666666666667,3.0166666666666666,2.6333333333333333,1.95,4.833333333333333,1.2,1.1833333333333333,1.7833333333333334,10.698909601761605,3.930648801406709,3.665151201974256,2.539685019840059,6.161709719442054,1.559914527573012,1.5110702608857516,2.171788817234923,6868.0,927.0,806.0,387.0,2278.0,146.0,137.0,283.0,38.24971751412429,6.457344632768359,6.609039548022598,2.6923728813559324,14.853107344632775,1.0101694915254236,0.8980225988700576,1.5624293785310732,741.0,280.0,239.0,165.0,444.0,93.0,93.0,143.0,1.0
556.0,222.0,187.0,106.0,221.0,67.0,80.0,81.0,9.266666666666667,3.7,3.1166666666666667,1.7666666666666666,3.683333333333333,1.1166666666666667,1.3333333333333333,1.35,11.78699848703364,4.377975178854566,3.836230789025429,2.3021728866442674,4.921043249826877,1.4433756729740645,1.632993161855452,1.8211717839530315,8336.0,1150.0,883.0,318.0,1453.0,125.0,160.0,199.0,53.961581920903974,5.569491525423728,5.087853107344633,2.215819209039546,10.830225988700562,0.8505649717514121,0.9039548022598874,1.519491525423729,860.0,314.0,288.0,159.0,375.0,86.0,95.0,124.0,1.0
565.0,227.0,184.0,124.0,312.0,64.0,52.0,108.0,9.416666666666666,3.783333333333333,3.066666666666667,2.066666666666667,5.2,1.0666666666666667,0.8666666666666667,1.8,12.167579874403948,4.745172985958116,3.6514837167011076,2.4765567494675613,6.473020933072903,1.449137674618944,1.3038404810405297,2.273030282830976,8883.0,1351.0,800.0,368.0,2514.0,126.0,102.0,310.0,60.382768361581945,8.342090395480225,3.9954802259887003,1.8937853107344638,15.111864406779668,0.9785310734463282,0.9649717514124291,1.9593220338983055,869.0,329.0,255.0,168.0,527.0,90.0,72.0,169.0,1.0
302.0,190.0,180.0,102.0,293.0,63.0,67.0,72.0,5.033333333333333,3.1666666666666665,3.0,1.7,4.883333333333334,1.05,1.1166666666666667,1.2,6.384877968032487,3.966526608171604,4.090639721771319,2.16794833886788,6.114191143015839,1.5,1.420093893609386,1.570562531918633,2446.0,944.0,1004.0,282.0,2243.0,135.0,121.0,148.0,15.693785310734457,5.802259887005648,7.864406779661017,1.8406779661016948,13.76581920903955,1.1669491525423727,0.7827683615819203,1.0440677966101692,463.0,267.0,275.0,144.0,484.0,93.0,93.0,106.0,1.0
485.0,280.0,199.0,146.0,286.0,81.0,69.0,101.0,8.083333333333334,4.666666666666667,3.316666666666667,2.433333333333333,4.766666666666667,1.35,1.15,1.6833333333333333,10.333602147041143,5.594640292279746,4.193248541803041,3.0767948691238205,6.252999280345393,1.9450792614526877,1.5968719422671311,2.2098265391956295,6407.0,1878.0,1055.0,568.0,2346.0,227.0,153.0,293.0,42.14548022598871,9.68361581920904,6.694632768361581,3.6056497175141238,16.656497175141254,1.9940677966101703,1.2483050847457617,2.0844632768361593,763.0,418.0,276.0,212.0,477.0,128.0,97.0,155.0,1.0
511.0,203.0,202.0,106.0,340.0,78.0,63.0,93.0,8.516666666666667,3.3833333333333333,3.3666666666666667,1.7666666666666666,5.666666666666667,1.3,1.05,1.55,10.875814145770114,4.181307610465097,4.0579140782755205,2.250925735484551,7.286974680894672,1.816590212458495,1.37234592334926,2.0453198608856593,7097.0,1049.0,988.0,304.0,3186.0,198.0,113.0,251.0,46.525141242937835,6.138700564971752,5.219209039548023,1.9785310734463262,21.34463276836158,1.6372881355932205,0.7940677966101694,1.811016949152543,735.0,280.0,291.0,145.0,568.0,117.0,78.0,119.0,1.0
496.0,204.0,211.0,132.0,278.0,76.0,57.0,100.0,8.266666666666667,3.4,3.5166666666666666,2.2,4.633333333333334,1.2666666666666666,0.95,1.6666666666666667,10.414733153886694,4.600724580614087,4.310839052125854,2.8106938645110393,6.069047152011041,1.632993161855452,1.284523257866513,1.9748417658131499,6508.0,1270.0,1115.0,474.0,2210.0,160.0,99.0,234.0,40.80903954802261,9.769491525423721,6.3217514124293785,3.11186440677966,15.625988700564978,1.0802259887005645,0.7601694915254237,1.141242937853107,836.0,316.0,307.0,200.0,482.0,121.0,78.0,121.0,1.0
585.0,218.0,197.0,112.0,329.0,72.0,70.0,96.0,9.75,3.6333333333333333,3.283333333333333,1.8666666666666667,5.483333333333333,1.2,1.1666666666666667,1.6,13.149778198382917,4.8545511292669135,4.006245124802026,2.4899799195977463,6.751543033509698,1.6020819787597222,1.449137674618944,2.1291625896895083,10375.0,1414.0,963.0,372.0,2735.0,154.0,126.0,272.0,79.17372881355932,10.541242937853111,5.3590395480226,2.7615819209039554,15.779378531073442,1.1457627118644065,0.7514124293785311,2.006779661016948,847.0,292.0,262.0,150.0,553.0,102.0,95.0,134.0,1.0
390.0,224.0,202.0,126.0,242.0,69.0,80.0,106.0,6.5,3.7333333333333334,3.3666666666666667,2.1,4.033333333333333,1.15,1.3333333333333333,1.7666666666666666,8.648699324175862,4.915960401250875,4.2895221179054435,2.422120283277993,5.310367218940701,1.6782927833565473,1.70293863659264,2.273030282830976,4488.0,1450.0,1104.0,352.0,1692.0,169.0,174.0,310.0,33.101694915254235,10.402259887005648,7.185310734463277,1.48135593220339,12.13446327683616,1.5194915254237285,1.141242937853108,2.0802259887005636,652.0,345.0,300.0,140.0,401.0,106.0,107.0,168.0,1.0
372.0,205.0,170.0,122.0,233.0,78.0,65.0,95.0,6.2,3.4166666666666665,2.8333333333333335,2.033333333333333,3.8833333333333333,1.3,1.0833333333333333,1.5833333333333333,8.330666239863412,4.345495752308744,3.6742346141747673,2.536401650632907,5.330728530573158,1.7224014243685084,1.37234592334926,2.101586702153082,4164.0,1133.0,810.0,386.0,1705.0,178.0,113.0,265.0,31.48474576271187,7.3319209039548,5.564971751412429,2.3378531073446327,13.562429378531073,1.2983050847457631,0.7217514124293782,1.9420903954802264,598.0,311.0,259.0,164.0,348.0,126.0,77.0,142.0,1.0
551.0,207.0,217.0,123.0,213.0,76.0,70.0,103.0,9.183333333333334,3.45,3.6166666666666667,2.05,3.55,1.2666666666666666,1.1666666666666667,1.7166666666666666,11.866619850094915,4.383681861935999,4.6169975814014315,2.753785273643051,4.807979478602905,1.7320508075688772,1.505545305418162,2.164101045083924,8449.0,1153.0,1279.0,455.0,1387.0,180.0,136.0,281.0,57.44039548022598,7.438135593220337,8.37598870056497,3.438135593220339,10.692372881355935,1.419209039548022,0.9209039548022602,1.7658192090395486,936.0,327.0,318.0,186.0,310.0,113.0,92.0,148.0,1.0
513.0,206.0,221.0,125.0,311.0,91.0,54.0,88.0,8.55,3.433333333333333,3.683333333333333,2.0833333333333335,5.183333333333334,1.5166666666666666,0.9,1.4666666666666666,11.253888216967503,4.155317877932646,4.876815901111435,2.6044833140823407,6.370504951205464,2.1330729007701543,1.2649110640673518,2.04939015319192,7599.0,1036.0,1427.0,407.0,2435.0,273.0,96.0,252.0,54.45508474576269,5.57175141242938,10.389548022598872,2.4844632768361588,13.948870056497173,2.287853107344635,0.8033898305084749,2.08361581920904,908.0,313.0,317.0,185.0,518.0,136.0,77.0,143.0,1.0
372.0,198.0,213.0,118.0,338.0,92.0,52.0,97.0,6.2,3.3,3.55,1.9666666666666666,5.633333333333334,1.5333333333333334,0.8666666666666667,1.6166666666666667,7.930952023559341,4.374166587286466,4.466542286825459,2.463060426921489,7.452069063913279,2.0330600909302543,1.1972189997378648,1.9958289839896939,3774.0,1148.0,1197.0,364.0,3332.0,248.0,86.0,239.0,24.874576271186452,8.383050847457627,7.472033898305083,2.236158192090394,24.202259887005646,1.8124293785310734,0.6937853107344628,1.3929378531073442,597.0,304.0,299.0,155.0,596.0,134.0,79.0,135.0,1.0
521.0,422.0,221.0,98.0,240.0,190.0,116.0,207.0,8.683333333333334,7.033333333333333,3.683333333333333,1.6333333333333333,4.0,3.1666666666666665,1.9333333333333333,3.45,11.978452877284834,8.755950357709132,4.818367635067572,2.041241452319315,5.406785859763019,4.69396776015061,2.536401650632907,4.832183771339828,8609.0,4600.0,1393.0,250.0,1754.0,1322.0,386.0,1401.0,69.23700564971752,27.6598870056497,9.813276836158192,1.5242937853107337,13.457627118644067,12.209039548022606,2.7412429378531056,11.64152542372882,880.0,613.0,362.0,122.0,376.0,328.0,195.0,357.0,2.0
394.0,530.0,271.0,109.0,300.0,154.0,108.0,216.0,6.566666666666666,8.833333333333334,4.516666666666667,1.8166666666666667,5.0,2.566666666666667,1.8,3.6,9.435747629803021,11.46298390472568,6.25433183215175,2.29128784747792,6.340346993658944,4.029061098237818,2.6012817353502227,4.73990154609425,5342.0,7884.0,2347.0,315.0,2412.0,974.0,406.0,1348.0,46.690395480225995,54.276836158192104,19.03361581920904,1.9827683615819212,15.457627118644067,9.809039548022604,3.5864406779661007,9.667796610169487,658.0,885.0,480.0,177.0,469.0,246.0,164.0,365.0,2.0
461.0,533.0,278.0,125.0,317.0,148.0,104.0,217.0,7.683333333333334,8.883333333333333,4.633333333333334,2.0833333333333335,5.283333333333333,2.466666666666667,1.7333333333333334,3.6166666666666667,10.67161343627726,11.616798181943249,5.715476066494082,2.4460853078609777,6.684559322298915,4.396968652757639,2.4358434541926814,5.004997502496879,6833.0,8097.0,1960.0,359.0,2681.0,1160.0,356.0,1503.0,55.77937853107344,56.98615819209041,11.388700564971753,1.67090395480226,17.05395480225989,13.47344632768363,2.9785310734463275,12.1725988700565,717.0,858.0,478.0,184.0,503.0,264.0,175.0,352.0,2.0
448.0,399.0,248.0,112.0,291.0,235.0,136.0,282.0,7.466666666666667,6.65,4.133333333333334,1.8666666666666667,4.85,3.9166666666666665,2.2666666666666666,4.7,9.132360045464699,8.860963077830009,5.2977982848223535,2.3523038352503134,6.87143847143134,6.262321188398649,2.9664793948382653,6.169819014093255,5004.0,4711.0,1684.0,332.0,2833.0,2353.0,528.0,2284.0,28.117514124293788,34.87542372881355,11.168361581920909,2.08361581920904,24.095762711864396,24.281073446327685,3.7242937853107363,16.247457627118642,740.0,689.0,407.0,170.0,511.0,385.0,242.0,446.0,2.0
440.0,541.0,209.0,104.0,360.0,204.0,129.0,193.0,7.333333333333333,9.016666666666667,3.4833333333333334,1.7333333333333334,6.0,3.4,2.15,3.216666666666667,10.352133435513023,12.151131634543344,4.631414470763764,2.258317958127243,7.578478299324564,4.708148963941845,2.7598309126949547,4.205155565889725,6430.0,8859.0,1287.0,306.0,3446.0,1330.0,457.0,1061.0,54.29378531073448,67.47429378531073,9.474293785310731,2.1310734463276826,21.796610169491526,10.786440677966098,3.044915254237288,7.460734463276832,723.0,957.0,340.0,164.0,640.0,339.0,197.0,312.0,2.0
393.0,468.0,221.0,126.0,286.0,216.0,128.0,211.0,6.55,7.8,3.683333333333333,2.1,4.766666666666667,3.6,2.1333333333333333,3.5166666666666666,8.435045939412541,10.10940156488009,4.934571916590131,2.556038601690775,6.6932802122726045,5.665686189686118,2.6457513110645907,5.159134294304294,4269.0,6132.0,1461.0,392.0,2688.0,1926.0,420.0,1597.0,28.726271186440677,42.061016949152524,10.96581920903955,2.159322033898305,22.45310734463278,19.46440677966102,2.4903954802259887,14.491242937853109,588.0,766.0,335.0,180.0,518.0,376.0,201.0,363.0,2.0
370.0,433.0,198.0,129.0,272.0,182.0,118.0,223.0,6.166666666666667,7.216666666666667,3.3,2.15,4.533333333333333,3.033333333333333,1.9666666666666666,3.716666666666667,8.504900548115382,9.45427592855917,4.301162633521313,2.704933763822446,6.0,4.273952113286562,2.816617356570348,5.054700782440045,4340.0,5363.0,1110.0,439.0,2160.0,1096.0,476.0,1533.0,34.8870056497175,37.93531073446328,7.738983050847457,2.7398305084745753,15.710734463276836,9.219209039548026,4.134463276836156,11.935310734463283,580.0,738.0,316.0,197.0,478.0,326.0,210.0,362.0,2.0
444.0,396.0,204.0,114.0,193.0,189.0,109.0,249.0,7.4,6.6,3.4,1.9,3.216666666666667,3.15,1.8166666666666667,4.15,9.85393322486001,8.195527235429498,4.898979485566356,2.3944379994757297,4.318564576337836,4.7871355387816905,2.3345235059857505,5.368115746392459,5826.0,4030.0,1440.0,344.0,1119.0,1375.0,327.0,1729.0,43.05762711864409,24.00677966101695,12.650847457627115,2.1593220338983055,8.44378531073446,13.214406779661012,2.186158192090396,11.790677966101693,693.0,644.0,319.0,172.0,313.0,324.0,164.0,379.0,2.0
388.0,388.0,190.0,86.0,206.0,198.0,125.0,284.0,6.466666666666667,6.466666666666667,3.1666666666666665,1.4333333333333333,3.433333333333333,3.3,2.0833333333333335,4.733333333333333,8.334666560017064,8.66410218468519,3.9958311609309356,2.057506581601462,4.5423929082955095,5.11207720338155,2.6362852652928135,6.603029607687671,4168.0,4504.0,958.0,254.0,1238.0,1568.0,417.0,2616.0,28.11751412429377,33.81242937853106,6.039548022598868,2.2158192090395477,8.995480225988702,15.501694915254243,2.6539548022598867,21.554802259887005,603.0,676.0,282.0,130.0,340.0,361.0,220.0,505.0,2.0
459.0,447.0,174.0,102.0,143.0,72.0,108.0,228.0,7.65,7.45,2.9,1.7,2.3833333333333333,1.2,1.8,3.8,9.578622030334008,10.187410531304476,3.7727090178455764,2.250925735484551,3.2015621187164243,1.591644851508443,2.23606797749979,5.160749299601108,5505.0,6227.0,854.0,304.0,615.0,152.0,300.0,1598.0,33.79067796610168,49.09915254237286,5.922033898305087,2.2135593220338983,4.647175141242939,1.1118644067796604,1.7898305084745765,12.400000000000007,724.0,727.0,272.0,152.0,227.0,93.0,175.0,390.0,2.0
361.0,369.0,250.0,115.0,124.0,83.0,110.0,292.0,6.016666666666667,6.15,4.166666666666667,1.9166666666666667,2.066666666666667,1.3833333333333333,1.8333333333333333,4.866666666666666,8.151686941977102,8.403372338928381,5.434457961318068,2.38397427279183,2.536401650632907,1.8303005217723127,2.449489742783178,6.353476738500477,3987.0,4237.0,1772.0,341.0,386.0,201.0,360.0,2422.0,30.76242937853108,33.349999999999994,12.378531073446334,2.0437853107344623,2.1988700564971757,1.4607344632768358,2.68361581920904,16.96497175141243,629.0,589.0,393.0,164.0,196.0,114.0,164.0,471.0,2.0
329.0,419.0,221.0,110.0,149.0,90.0,115.0,215.0,5.483333333333333,6.983333333333333,3.683333333333333,1.8333333333333333,2.4833333333333334,1.5,1.9166666666666667,3.5833333333333335,7.182153808805081,9.118662182579197,4.591659104651971,2.206052281036573,3.4713109915419564,2.160246899469287,2.610874693788782,4.893873721296862,3095.0,4989.0,1265.0,292.0,723.0,280.0,409.0,1437.0,21.88107344632768,34.965819209039545,7.643785310734463,1.531073446327684,5.982768361581921,2.457627118644068,3.1963276836158205,11.298022598870054,531.0,634.0,363.0,168.0,262.0,135.0,202.0,349.0,2.0
473.0,419.0,210.0,96.0,176.0,234.0,108.0,297.0,7.883333333333334,6.983333333333333,3.5,1.6,2.933333333333333,3.9,1.8,4.95,10.504760825454333,9.418952524918398,4.527692569068709,2.1525179054617256,3.5402448126271344,5.927337794772062,2.3380903889000244,6.955812916786458,6621.0,5323.0,1230.0,278.0,752.0,2108.0,328.0,2903.0,49.02005649717514,40.626836158192106,8.389830508474576,2.1084745762711865,3.995480225988701,20.26101694915255,2.264406779661017,24.285593220338992,719.0,729.0,340.0,135.0,280.0,413.0,152.0,520.0,2.0
478.0,430.0,189.0,89.0,158.0,193.0,106.0,288.0,7.966666666666667,7.166666666666667,3.15,1.4833333333333334,2.6333333333333333,3.216666666666667,1.7666666666666666,4.8,11.03479345826947,9.68159766429763,4.002082791080998,1.9364916731037085,3.125166662222459,4.620606020859169,2.250925735484551,6.03876367037713,7306.0,5624.0,961.0,225.0,586.0,1281.0,304.0,2188.0,59.287005649717514,43.090395480226,6.197457627118642,1.5759887005649729,2.8802259887005657,11.189548022598865,1.9785310734463264,13.654237288135597,809.0,661.0,309.0,138.0,248.0,303.0,158.0,480.0,2.0
551.0,385.0,202.0,106.0,138.0,233.0,160.0,246.0,9.183333333333334,6.416666666666667,3.3666666666666667,1.7666666666666666,2.3,3.8833333333333333,2.6666666666666665,4.1,11.32622325991031,8.355636819935789,4.305035810923451,2.2135943621178655,2.886751345948129,5.976342248120222,3.271085446759225,5.300943312279429,7697.0,4189.0,1112.0,294.0,500.0,2143.0,642.0,1686.0,44.69463276836158,29.128531073446318,7.32090395480226,1.8090395480225976,3.094915254237289,20.986158192090404,3.6497175141242963,11.481355932203387,831.0,641.0,329.0,149.0,222.0,415.0,269.0,434.0,2.0
478.0,439.0,157.0,102.0,147.0,237.0,123.0,348.0,7.966666666666667,7.316666666666666,2.6166666666666667,1.7,2.45,3.95,2.05,5.8,10.461038826681284,9.41541289588513,3.7925365302569376,2.2135943621178655,3.019381835188565,6.647054485509603,2.80178514522438,7.238784428341543,6566.0,5319.0,863.0,294.0,547.0,2651.0,471.0,3144.0,46.74463276836157,35.71158192090396,7.664124293785307,2.0440677966101686,3.166949152542372,29.065254237288144,3.709322033898303,19.077966101694912,821.0,714.0,257.0,132.0,242.0,425.0,212.0,584.0,2.0
522.0,439.0,163.0,81.0,155.0,192.0,111.0,290.0,8.7,7.316666666666666,2.716666666666667,1.35,2.5833333333333335,3.2,1.85,4.833333333333333,11.43241006962224,9.167878707749137,3.533176097130361,1.8211717839530315,3.3936214677931695,5.141335753803026,2.5,6.126445407684078,7842.0,5043.0,749.0,199.0,691.0,1586.0,375.0,2252.0,55.942372881355915,31.033615819209036,5.189548022598874,1.5194915254237287,4.925141242937854,16.467796610169497,2.875423728813559,14.41242937853108,763.0,695.0,227.0,130.0,269.0,337.0,183.0,510.0,2.0
317.0,397.0,156.0,113.0,125.0,184.0,102.0,226.0,5.283333333333333,6.616666666666666,2.6,1.8833333333333333,2.0833333333333335,3.066666666666667,1.7,3.7666666666666666,6.830080526611674,8.866604009803678,3.665151201974256,2.355843797877949,2.735568192045911,5.319774431308154,2.0816659994661326,4.494441010848846,2799.0,4717.0,806.0,333.0,449.0,1698.0,260.0,1212.0,19.053954802259884,35.42683615819209,6.786440677966104,2.0370056497175164,3.196327683615819,19.21581920903956,1.467796610169491,6.11412429378531,484.0,655.0,215.0,159.0,200.0,328.0,146.0,375.0,2.0
476.0,1170.0,446.0,183.0,587.0,516.0,1437.0,382.0,7.933333333333334,19.5,7.433333333333334,3.05,9.783333333333333,8.6,23.95,6.366666666666666,10.120935398140498,23.717785169221287,9.183318209303941,3.730504880933232,12.813404439622333,11.73740459670138,30.270722929369672,7.859177225808479,6146.0,33752.0,5060.0,835.0,9851.0,8266.0,54979.0,3706.0,40.16497175141243,185.3728813559322,29.57175141242937,4.69237288135593,69.63022598870056,64.88813559322037,348.5228813559324,21.59209039548022,820.0,1895.0,738.0,295.0,972.0,846.0,2505.0,594.0,3.0
446.0,1102.0,788.0,235.0,661.0,549.0,1192.0,348.0,7.433333333333334,18.366666666666667,13.133333333333333,3.9166666666666665,11.016666666666667,9.15,19.866666666666667,5.8,8.809086218218097,23.2379000772445,15.844031473502358,4.642197755374064,13.811227316933133,11.621101496846158,24.847535089018386,6.95940610492974,4656.0,32400.0,15062.0,1293.0,11445.0,8103.0,37044.0,2906.0,22.72429378531073,206.10056497175142,79.8802259887006,6.314971751412429,70.55903954802262,52.19745762711869,226.49039548022594,15.044067796610172,694.0,1775.0,1370.0,365.0,1103.0,960.0,1897.0,495.0,3.0
450.0,1276.0,424.0,166.0,584.0,401.0,1202.0,466.0,7.5,21.266666666666666,7.066666666666666,2.7666666666666666,9.733333333333333,6.683333333333334,20.033333333333335,7.766666666666667,9.78263768111648,29.28253176668074,9.057225476564737,3.5777087639996634,12.67412061380723,8.834591105421914,25.155516293648198,9.596874491208062,5742.0,51448.0,4922.0,768.0,9638.0,4683.0,37968.0,5526.0,40.11864406779661,412.0632768361583,32.63954802259886,5.232768361581921,67.01242937853107,33.948870056497185,235.38870056497174,32.31751412429379,697.0,2231.0,679.0,272.0,1025.0,613.0,1882.0,708.0,3.0
861.0,1248.0,565.0,201.0,874.0,664.0,1325.0,411.0,14.35,20.8,9.416666666666666,3.35,14.566666666666666,11.066666666666666,22.083333333333332,6.85,17.782482016486526,27.025296791463116,11.79053292547316,4.368447474027052,18.186075259201292,13.966626889362608,29.726251024977906,8.363611660042569,18973.0,43822.0,8341.0,1145.0,19844.0,11704.0,53019.0,4197.0,112.16355932203395,302.77288135593216,51.19632768361583,7.994067796610172,120.554802259887,73.82598870056496,402.68785310734467,23.417796610169493,1361.0,2072.0,977.0,319.0,1517.0,1081.0,2234.0,598.0,3.0
908.0,1120.0,543.0,193.0,797.0,654.0,1300.0,436.0,15.133333333333333,18.666666666666668,9.05,3.216666666666667,13.283333333333333,10.9,21.666666666666668,7.266666666666667,19.238849584456272,23.39658094679648,10.820505225419621,4.051748593714406,15.950444089951436,13.727102146240966,27.06966321672042,9.500877152487904,22208.0,32844.0,7025.0,985.0,15265.0,11306.0,43966.0,5416.0,143.50734463276834,202.32768361581927,35.7771186440678,6.172598870056493,79.2912429378531,70.80338983050852,267.7853107344633,38.09717514124294,1396.0,1846.0,913.0,304.0,1307.0,1071.0,2161.0,681.0,3.0
837.0,1567.0,505.0,172.0,798.0,578.0,1157.0,417.0,13.95,26.116666666666667,8.416666666666666,2.8666666666666667,13.3,9.633333333333333,19.283333333333335,6.95,17.08751981222943,31.36691462884632,10.783475011949225,3.794733192202055,16.484335999163974,12.704329970525798,25.889830693408044,8.688114486661265,17519.0,59033.0,6977.0,864.0,16304.0,9684.0,40217.0,4529.0,99.03135593220335,306.9183615819209,46.21327683615819,6.287005649717511,96.45084745762709,69.76158192090394,303.4946327683616,27.641525423728815,1325.0,2797.0,871.0,278.0,1349.0,977.0,1899.0,693.0,3.0
726.0,1017.0,498.0,197.0,671.0,579.0,1275.0,589.0,12.1,16.95,8.3,3.283333333333333,11.183333333333334,9.65,21.25,9.816666666666666,15.372052563011877,21.21281059485832,10.518238128761553,4.444097208657794,15.014992507490637,12.273956167430288,27.334044706190117,12.374031948668415,14178.0,26999.0,6638.0,1185.0,13527.0,9039.0,44829.0,9187.0,91.41355932203392,165.43813559322038,42.45084745762712,9.121751412429381,102.08446327683615,58.502542372881365,300.5974576271187,57.71158192090396,1209.0,1760.0,813.0,347.0,1214.0,990.0,2070.0,1012.0,3.0
758.0,1260.0,473.0,199.0,708.0,587.0,1134.0,473.0,12.633333333333333,21.0,7.883333333333334,3.316666666666667,11.8,9.783333333333333,18.9,7.883333333333334,15.774451918635187,26.765026931924925,9.113177272499422,4.287578959428425,15.56277610196844,12.795181384672382,25.676837811537464,10.07885575516057,14930.0,42982.0,4983.0,1103.0,14532.0,9823.0,39558.0,6095.0,90.74463276836156,280.03389830508473,21.257344632768362,7.5081920903954815,104.70508474576268,69.15564971751412,307.2101694915254,40.104802259887016,1259.0,2064.0,681.0,314.0,1131.0,988.0,1828.0,723.0,3.0
825.0,1242.0,477.0,146.0,860.0,633.0,1279.0,471.0,13.75,20.7,7.95,2.433333333333333,14.333333333333334,10.55,21.316666666666666,7.85,17.22836807903368,26.431672919687344,10.823585357911675,3.1989581637360205,18.121810064118872,13.070960178961606,26.39286519749861,9.910432213918153,17809.0,41918.0,7029.0,614.0,19704.0,10251.0,41795.0,5893.0,109.58050847457628,274.7220338983051,54.861864406779645,4.385310734463278,125.03954802259882,60.55677966101692,246.28785310734455,37.21440677966102,1395.0,2166.0,774.0,207.0,1433.0,1114.0,2118.0,712.0,3.0
500.0,1112.0,422.0,229.0,963.0,685.0,1068.0,638.0,8.333333333333334,18.533333333333335,7.033333333333333,3.816666666666667,16.05,11.416666666666666,17.8,10.633333333333333,10.051533879629185,22.68700068321064,9.02219485491197,4.620606020859169,22.537746116237976,16.262943563000313,22.871379494905856,13.63084736911099,6062.0,30882.0,4884.0,1281.0,30477.0,15869.0,31386.0,11148.0,32.12429378531072,174.11751412429382,32.47344632768361,6.898022598870055,254.59067796610185,136.41666666666663,209.75593220338996,73.96497175141245,773.0,1827.0,647.0,398.0,1694.0,1202.0,1594.0,1009.0,3.0
532.0,1346.0,506.0,196.0,714.0,556.0,1157.0,509.0,8.866666666666667,22.433333333333334,8.433333333333334,3.2666666666666666,11.9,9.266666666666667,19.283333333333335,8.483333333333333,11.529671865813587,28.51666179622012,10.677078252031311,4.110960958218893,16.261406253252925,12.179217270963408,24.97832393629858,11.33210777687305,7976.0,48792.0,6840.0,1014.0,15866.0,8900.0,37435.0,7705.0,55.23615819209041,315.1988700564972,43.60564971751411,6.3344632768361615,124.90508474576274,63.52090395480226,256.3420903954802,57.406497175141226,796.0,2404.0,896.0,328.0,1131.0,912.0,1787.0,805.0,3.0
609.0,1080.0,351.0,179.0,776.0,659.0,1146.0,648.0,10.15,18.0,5.85,2.9833333333333334,12.933333333333334,10.983333333333333,19.1,10.8,13.565274293823427,25.41128358295451,7.638717169787085,4.1492971292336565,18.379336223052235,15.438588018338983,25.76431640855235,14.28402370949213,11041.0,38744.0,3501.0,1033.0,20268.0,14301.0,39828.0,12242.0,82.36694915254236,327.1864406779661,24.53644067796611,8.457344632768363,173.41920903954806,119.71158192090395,304.05762711864395,88.87457627118641,1003.0,1800.0,486.0,258.0,1251.0,1123.0,1780.0,1049.0,3.0
419.0,1200.0,424.0,166.0,616.0,517.0,1120.0,378.0,6.983333333333333,20.0,7.066666666666666,2.7666666666666666,10.266666666666667,8.616666666666667,18.666666666666668,6.3,8.804354982999417,27.03701166919155,8.734987120768983,3.468909530866052,13.046072205840346,11.718219432433695,23.53932879246985,8.17720408615724,4651.0,43860.0,4578.0,722.0,10212.0,8239.0,33246.0,4012.0,29.237005649717506,336.6101694915254,26.809039548022596,4.453107344632768,65.89378531073446,64.13870056497176,209.14124293785318,27.63728813559322,655.0,2043.0,742.0,261.0,988.0,814.0,1947.0,583.0,3.0
410.0,1184.0,405.0,180.0,790.0,591.0,1205.0,532.0,6.833333333333333,19.733333333333334,6.75,3.0,13.166666666666666,9.85,20.083333333333332,8.866666666666667,8.598449472627802,26.51100400462671,8.509798274146496,3.8815804341359033,15.722595205626837,12.288883865781575,28.990515690480567,10.666145820617055,4436.0,42170.0,4345.0,904.0,14832.0,9061.0,50427.0,6826.0,27.700564971751394,318.741242937853,27.309322033898304,6.169491525423729,75.090395480226,54.909322033898306,444.5183615819209,35.74463276836159,670.0,1966.0,645.0,305.0,1335.0,982.0,1980.0,903.0,3.0
433.0,1019.0,465.0,187.0,887.0,609.0,1309.0,437.0,7.216666666666667,16.983333333333334,7.75,3.1166666666666667,14.783333333333333,10.15,21.816666666666666,7.283333333333333,9.06550237622457,23.973248980200133,9.947361459201128,3.9644251369734134,18.377975949489105,13.050542772876026,27.312695460780382,8.967534034876403,4931.0,34483.0,5937.0,943.0,20265.0,10219.0,44759.0,4825.0,30.613276836158192,291.13531073446336,39.54661016949152,6.104802259887005,121.22344632768366,68.43474576271187,274.5929378531074,27.83361581920904,704.0,1724.0,841.0,275.0,1623.0,1025.0,2265.0,690.0,3.0
620.0,1184.0,444.0,187.0,820.0,692.0,1693.0,529.0,10.333333333333334,19.733333333333334,7.4,3.1166666666666667,13.666666666666666,11.533333333333333,28.216666666666665,8.816666666666666,13.814243856734734,23.79845933388686,9.68676072448026,4.112987559751022,17.508093366592874,13.407709225168432,34.75845220949863,11.13777356566383,11450.0,33982.0,5630.0,1015.0,18392.0,10786.0,72489.0,7443.0,85.48022598870052,179.96158192090402,39.735593220339,7.325141242937852,121.78531073446325,47.54124293785311,418.95225988700565,47.10141242937853,1007.0,1974.0,630.0,282.0,1251.0,1105.0,2919.0,824.0,3.0
501.0,1168.0,422.0,200.0,634.0,751.0,1362.0,517.0,8.35,19.466666666666665,7.033333333333333,3.3333333333333335,10.566666666666666,12.516666666666667,22.7,8.616666666666667,10.388294694831615,24.651571957990836,9.282600210429546,4.143267631552018,15.430489298787643,17.939249333979017,29.25121080115032,11.044606526867915,6475.0,36462.0,5170.0,1030.0,14286.0,19309.0,51338.0,7319.0,38.841525423728804,232.62598870056502,37.32090395480227,6.158192090395478,128.5887005649718,167.94887005649719,346.1118644067799,48.54548022598871,838.0,2051.0,694.0,257.0,920.0,1255.0,2416.0,867.0,3.0
618.0,1160.0,451.0,197.0,691.0,708.0,1260.0,400.0,10.3,19.333333333333332,7.516666666666667,3.283333333333333,11.516666666666667,11.8,21.0,6.666666666666667,12.596295751794122,27.102275427228122,9.89023087024093,3.8144462245521304,14.332364308329128,13.929584822719352,26.335021042963557,8.006247560499238,9520.0,44072.0,5869.0,873.0,12325.0,11642.0,41612.0,3846.0,53.46779661016951,366.87005649717514,42.01666666666668,3.83361581920904,74.01666666666667,55.72203389830507,256.8135593220339,19.98870056497175,961.0,1993.0,700.0,310.0,1116.0,1138.0,2123.0,595.0,3.0
1622.0,454.0,189.0,155.0,507.0,151.0,250.0,368.0,27.033333333333335,7.566666666666666,3.15,2.5833333333333335,8.45,2.5166666666666666,4.166666666666667,6.133333333333334,32.92567387313432,10.014988766843425,4.228869037146142,3.278719262151,11.856784274554942,3.442382895611701,5.552777082985894,7.844318538492259,65046.0,6018.0,1073.0,645.0,8435.0,711.0,1850.0,3692.0,359.2870056497174,43.77514124293788,8.095762711864406,4.1454802259887025,70.35338983050845,5.6098870056497185,13.700564971751415,24.32090395480226,2606.0,754.0,291.0,236.0,856.0,202.0,375.0,562.0,4.0
1261.0,407.0,275.0,157.0,470.0,203.0,236.0,345.0,21.016666666666666,6.783333333333333,4.583333333333333,2.6166666666666667,7.833333333333333,3.3833333333333333,3.933333333333333,5.75,26.238965934909352,8.361618663073955,5.826662852782886,3.304037933599835,9.906226997870245,4.825280648141964,4.9899899799498595,6.815423684555495,41309.0,4195.0,2037.0,655.0,5888.0,1397.0,1494.0,2787.0,250.96581920903958,24.308192090395476,13.162429378531074,4.138700564971752,37.39548022598871,12.037005649717504,9.588700564971747,13.614406779661017,2029.0,688.0,433.0,213.0,781.0,330.0,411.0,539.0,4.0
1252.0,483.0,260.0,132.0,528.0,240.0,236.0,353.0,20.866666666666667,8.05,4.333333333333333,2.2,8.8,4.0,3.933333333333333,5.883333333333334,29.722606435730587,11.807483502705674,5.48026763336731,2.9040202019499337,11.520995327372255,5.6421036266035856,5.0,7.564169925819136,53006.0,8365.0,1802.0,506.0,7964.0,1910.0,1500.0,3433.0,455.6090395480225,75.87881355932203,11.44632768361582,3.6542372881355925,56.23050847457625,16.10169491525424,9.690395480225984,22.986158192090397,2170.0,833.0,401.0,200.0,866.0,398.0,367.0,606.0,4.0
1201.0,533.0,289.0,165.0,692.0,274.0,208.0,254.0,20.016666666666666,8.883333333333333,4.816666666666666,2.75,11.533333333333333,4.566666666666666,3.466666666666667,4.233333333333333,25.927141505894294,11.6940155635265,5.872251129961434,3.248076353782343,16.504544828622205,6.2048368229954285,4.4234225060089685,5.561774297230456,40333.0,8205.0,2069.0,633.0,16344.0,2310.0,1174.0,1856.0,276.15225988700564,58.81666666666663,11.47429378531073,3.038135593220339,141.74463276836153,17.94463276836158,7.676836158192089,13.232768361581922,1878.0,916.0,470.0,237.0,1190.0,493.0,328.0,408.0,4.0
1064.0,554.0,241.0,131.0,638.0,222.0,187.0,269.0,17.733333333333334,9.233333333333333,4.016666666666667,2.183333333333333,10.633333333333333,3.7,3.1166666666666667,4.483333333333333,21.717120742246966,11.48332123850355,4.9311932295000025,2.711088342345192,15.27634336700595,5.3416601664027015,4.035261247222208,5.71110030262704,28298.0,7912.0,1459.0,441.0,14002.0,1712.0,977.0,1957.0,159.82598870056498,47.402259887005656,8.321751412429377,2.6268361581920896,122.33785310734464,15.094915254237291,6.681073446327684,12.728531073446328,1586.0,824.0,369.0,199.0,1111.0,399.0,284.0,434.0,4.0
998.0,535.0,237.0,138.0,389.0,213.0,292.0,314.0,16.633333333333333,8.916666666666666,3.95,2.3,6.483333333333333,3.55,4.866666666666666,5.233333333333333,22.82177322938192,10.680979980008077,5.077729151238113,2.869378562220979,8.811923740024081,5.077729151238113,6.5979794887020775,6.935416353759881,31250.0,6845.0,1547.0,494.0,4659.0,1547.0,2612.0,2886.0,248.3039548022599,35.162429378531066,10.353389830508474,2.993220338983051,36.22005649717514,13.404237288135603,20.18531073446328,21.063276836158188,1741.0,786.0,364.0,200.0,693.0,348.0,457.0,534.0,4.0
719.0,329.0,276.0,118.0,315.0,223.0,171.0,165.0,11.983333333333333,5.483333333333333,4.6,1.9666666666666666,5.25,3.716666666666667,2.85,2.75,16.63279892261071,7.33143914930759,6.080021929785013,2.562550812504343,7.116881339463234,5.506057270558187,3.6446307540453713,3.640054944640259,16599.0,3225.0,2218.0,394.0,3039.0,1819.0,797.0,795.0,135.304802259887,24.08446327683615,16.07457627118644,2.7446327683615817,23.478813559322035,16.782768361581923,5.2483050847457635,5.783898305084746,1138.0,554.0,428.0,145.0,558.0,363.0,254.0,266.0,4.0
971.0,445.0,230.0,132.0,272.0,169.0,113.0,252.0,16.183333333333334,7.416666666666667,3.8333333333333335,2.2,4.533333333333333,2.816666666666667,1.8833333333333333,4.2,19.280819484658842,10.029124255553588,5.2883519802171515,2.851899951494325,5.910442735813733,4.544227107000705,2.958039891549808,5.770615218501403,22305.0,6035.0,1678.0,488.0,2096.0,1239.0,525.0,1998.0,111.71158192090391,46.34887005649718,13.497175141242936,3.3491525423728805,14.625988700564962,12.931920903954802,5.291242937853103,15.92542372881356,1496.0,773.0,384.0,200.0,451.0,259.0,167.0,422.0,4.0
698.0,328.0,270.0,129.0,389.0,212.0,140.0,215.0,11.633333333333333,5.466666666666667,4.5,2.15,6.483333333333333,3.533333333333333,2.3333333333333335,3.5833333333333335,16.33809454414233,7.08754776585903,6.036003092554984,2.686385427794505,9.599479152537391,5.316640543300503,3.1037611591959413,5.044799302251775,16016.0,3014.0,2186.0,433.0,5529.0,1696.0,578.0,1527.0,133.82937853107344,20.693785310734455,16.45762711864407,2.6381355932203387,50.96581920903955,16.049717514124296,4.259887005649717,12.823446327683614,1148.0,495.0,382.0,175.0,686.0,354.0,220.0,358.0,4.0
709.0,419.0,250.0,117.0,219.0,152.0,133.0,173.0,11.816666666666666,6.983333333333333,4.166666666666667,1.95,3.65,2.533333333333333,2.216666666666667,2.8833333333333333,15.994269807236174,9.342554968172964,5.668627111861683,2.598076211353316,4.961518584734584,3.687817782917155,2.8077274321652617,3.671965867669978,15349.0,5237.0,1928.0,405.0,1477.0,816.0,473.0,809.0,118.15225988700564,39.169209039548036,15.022598870056504,2.9974576271186444,11.485593220338982,7.303954802259879,3.0200564971751414,5.257344632768359,1108.0,680.0,396.0,172.0,366.0,229.0,224.0,284.0,4.0
732.0,382.0,239.0,121.0,269.0,145.0,153.0,205.0,12.2,6.366666666666666,3.9833333333333334,2.0166666666666666,4.483333333333333,2.4166666666666665,2.55,3.4166666666666665,16.234736421225527,8.14657392200345,4.856267428111155,2.533114025595111,5.725673177307043,3.8056974831603907,3.83188378390229,4.2485291572496005,15814.0,3982.0,1415.0,385.0,1967.0,869.0,881.0,1083.0,116.67118644067793,26.270056497175144,7.8471751412429365,2.38954802259887,12.898022598870051,8.78954802259887,8.319491525423723,6.4844632768361565,1234.0,613.0,372.0,170.0,447.0,229.0,245.0,314.0,4.0
870.0,491.0,227.0,132.0,309.0,163.0,141.0,169.0,14.5,8.183333333333334,3.783333333333333,2.2,5.15,2.716666666666667,2.35,2.816666666666667,19.986662219256786,10.754068997360953,4.766200443400033,2.6832815729997477,6.391400472509918,4.356986726320535,3.344149119482164,3.566043559277798,23968.0,6939.0,1363.0,432.0,2451.0,1139.0,671.0,763.0,192.42372881355934,49.50819209039548,8.545480225988697,2.4,14.570338983050846,11.79971751412429,5.7567796610169495,4.864124293785308,1405.0,785.0,350.0,202.0,520.0,237.0,224.0,260.0,4.0
795.0,476.0,212.0,140.0,461.0,327.0,210.0,202.0,13.25,7.933333333333334,3.533333333333333,2.3333333333333335,7.683333333333334,5.45,3.5,3.3666666666666667,16.629792542301903,10.117641358867523,4.43471156521669,2.8284271247461903,11.947803145348521,7.147260547463856,4.509249752822894,4.127145906474999,16593.0,6142.0,1180.0,480.0,8565.0,3065.0,1220.0,1022.0,102.69915254237289,40.09717514124294,7.3039548022598835,2.598870056497175,85.13531073446325,21.743220338983058,8.220338983050848,5.795480225988701,1324.0,692.0,307.0,195.0,800.0,530.0,342.0,308.0,4.0
1258.0,636.0,247.0,153.0,350.0,280.0,264.0,296.0,20.966666666666665,10.6,4.116666666666666,2.55,5.833333333333333,4.666666666666667,4.4,4.933333333333334,26.197328108034224,13.30162897292408,4.961518584734584,3.1490739379485304,7.547626558506102,6.186005711819758,5.799425258879825,6.442049363362563,41178.0,10616.0,1477.0,595.0,3418.0,2296.0,2018.0,2490.0,250.8802259887005,65.6677966101695,7.799717514124292,3.472033898305086,23.327683615819204,16.76836158192091,14.51525423728814,17.453107344632762,1986.0,1009.0,318.0,203.0,603.0,451.0,453.0,427.0,4.0
1145.0,613.0,263.0,146.0,362.0,357.0,231.0,249.0,19.083333333333332,10.216666666666667,4.383333333333334,2.433333333333333,6.033333333333333,5.95,3.85,4.15,23.55808424582384,13.088799282847402,5.315072906367325,2.9776948578836393,8.244189873278433,8.363611660042569,4.825280648141964,5.566267450754889,33299.0,10279.0,1695.0,532.0,4078.0,4197.0,1397.0,1859.0,194.0437853107345,68.07090395480225,9.189548022598867,2.995480225988701,32.1005649717514,35.13305084745763,8.604237288135595,13.99406779661017,1730.0,886.0,348.0,191.0,604.0,598.0,358.0,394.0,4.0
677.0,464.0,237.0,137.0,346.0,331.0,223.0,182.0,11.283333333333333,7.733333333333333,3.95,2.283333333333333,5.766666666666667,5.516666666666667,3.716666666666667,3.033333333333333,13.76166172136684,9.762171889492624,4.934571916590131,2.83137187007759,8.078778785600374,7.936203962432753,5.07444578254611,3.750555514409388,11363.0,5718.0,1461.0,481.0,3916.0,3779.0,1545.0,844.0,63.12175141242939,36.09717514124293,8.895762711864405,2.8505649717514134,32.55480225988701,33.101412429378534,12.138700564971753,4.948022598870056,1099.0,751.0,336.0,188.0,550.0,562.0,364.0,296.0,4.0
900.0,429.0,200.0,119.0,534.0,303.0,205.0,227.0,15.0,7.15,3.3333333333333335,1.9833333333333334,8.9,5.05,3.4166666666666665,3.783333333333333,20.51016008388688,8.55277732669336,4.102844541697057,2.5527762664727724,12.16963434126104,6.647054485509603,4.2641919906745915,4.811444689487764,25240.0,4389.0,1010.0,391.0,8886.0,2651.0,1091.0,1389.0,198.98305084745763,22.400847457627112,5.819209039548024,2.626836158192088,70.0576271186441,18.997457627118646,6.620056497175144,8.986158192090391,1496.0,654.0,305.0,184.0,919.0,465.0,283.0,382.0,4.0
1060.0,474.0,241.0,131.0,305.0,379.0,295.0,237.0,17.666666666666668,7.9,4.016666666666667,2.183333333333333,5.083333333333333,6.316666666666666,4.916666666666667,3.95,23.140152693244413,10.844353369380768,5.346338310781813,2.704933763822446,6.864158117836933,8.317651912248632,6.227626621220425,5.051402445526061,32128.0,7056.0,1715.0,439.0,2827.0,4151.0,2327.0,1531.0,227.1412429378531,56.125423728813544,12.660734463276837,2.5929378531073444,21.63700564971751,29.779378531073444,14.857344632768362,10.082203389830507,1630.0,742.0,357.0,163.0,517.0,607.0,448.0,339.0,4.0
360.0,576.0,225.0,123.0,248.0,200.0,297.0,336.0,6.0,9.6,3.75,2.05,4.133333333333334,3.3333333333333335,4.95,5.6,7.761013679496599,12.683322382824883,4.73462423711393,2.539685019840059,5.7561561248226525,4.419653078391259,6.354788220966403,7.846442930823283,3614.0,9652.0,1345.0,387.0,1988.0,1172.0,2423.0,3694.0,24.64406779661017,69.87118644067797,8.495762711864407,2.2855932203389835,16.320903954802265,8.564971751412429,16.150000000000006,30.718644067796607,583.0,973.0,352.0,174.0,383.0,320.0,433.0,549.0,5.0
307.0,400.0,183.0,125.0,177.0,182.0,290.0,249.0,5.116666666666666,6.666666666666667,3.05,2.0833333333333335,2.95,3.033333333333333,4.833333333333333,4.15,6.489735485107746,9.06642156531451,3.788139384975162,2.642599730063812,3.653765181289022,3.987480407475377,5.87083185474313,5.7081812631812365,2527.0,4932.0,861.0,419.0,801.0,954.0,2068.0,1955.0,16.20649717514125,38.395480225988685,5.133050847457626,2.687853107344632,4.726271186440677,6.812429378531076,11.293785310734462,15.62118644067796,494.0,678.0,287.0,187.0,281.0,302.0,467.0,388.0,5.0
400.0,492.0,243.0,136.0,158.0,148.0,302.0,371.0,6.666666666666667,8.2,4.05,2.2666666666666666,2.6333333333333333,2.466666666666667,5.033333333333333,6.183333333333334,8.47938677028003,10.666145820617055,4.994997497496871,2.972092416687835,3.6239941133138354,3.488074922742725,6.3744280789207535,7.815582725128904,4314.0,6826.0,1497.0,530.0,788.0,730.0,2438.0,3665.0,27.920903954802256,47.315254237288144,8.692372881355931,3.7581920903954824,6.303954802259885,6.185310734463274,15.55819209039548,23.237005649717513,676.0,847.0,339.0,201.0,271.0,251.0,501.0,617.0,5.0
337.0,490.0,239.0,148.0,203.0,187.0,405.0,463.0,5.616666666666666,8.166666666666666,3.9833333333333334,2.466666666666667,3.3833333333333333,3.1166666666666667,6.75,7.716666666666667,6.859300255857007,10.852035139395129,4.924428900898052,3.1037611591959413,4.383681861935999,4.059967159144682,8.480369488805701,9.381719813907612,2823.0,7066.0,1455.0,578.0,1153.0,989.0,4315.0,5281.0,15.765819209039545,51.93785310734465,8.525141242937856,3.6090395480225976,7.9014124293785315,6.8844632768361596,26.800847457627118,28.952259887005642,521.0,826.0,365.0,208.0,326.0,301.0,650.0,798.0,5.0
397.0,535.0,194.0,133.0,238.0,150.0,286.0,383.0,6.616666666666666,8.916666666666666,3.2333333333333334,2.216666666666667,3.966666666666667,2.5,4.766666666666667,6.383333333333334,8.212794895770866,11.655470818461174,3.953901027255656,2.9126162351626985,5.266244708835067,3.286335345030997,6.177917664283546,8.297590011563598,4047.0,8151.0,938.0,509.0,1664.0,648.0,2290.0,4131.0,24.07090395480226,57.29802259887005,5.266666666666666,3.630225988700566,12.202259887005654,4.627118644067797,15.707344632768363,28.579378531073434,636.0,874.0,286.0,203.0,388.0,236.0,427.0,640.0,5.0
315.0,483.0,216.0,124.0,142.0,150.0,379.0,354.0,5.25,8.05,3.6,2.066666666666667,2.3666666666666667,2.5,6.316666666666666,5.9,6.684559322298915,10.832820500682175,4.774934554525329,2.780887148615228,2.9552213679068666,3.22490309931942,8.233063423376096,7.505553499465135,2681.0,7041.0,1368.0,464.0,524.0,624.0,4067.0,3380.0,17.411016949152543,53.43813559322033,10.006779661016942,3.5209039548022605,3.185310734463277,4.220338983050848,28.35564971751413,21.88813559322034,514.0,801.0,323.0,192.0,218.0,220.0,597.0,580.0,5.0
492.0,523.0,219.0,143.0,297.0,178.0,270.0,430.0,8.2,8.716666666666667,3.65,2.3833333333333333,4.95,2.966666666666667,4.5,7.166666666666667,11.23536084571089,12.226337690957719,4.699290726623895,3.052321520853704,6.573938444088648,4.049691346263317,5.680375574437544,9.586448768965493,7574.0,8969.0,1325.0,559.0,2593.0,984.0,1936.0,5514.0,59.993220338982994,74.74887005649715,8.909322033898306,3.6980225988700592,19.031355932203397,7.72768361581921,12.220338983050848,41.225988700565,791.0,915.0,351.0,229.0,515.0,311.0,428.0,721.0,5.0
356.0,490.0,302.0,142.0,273.0,176.0,283.0,420.0,5.933333333333334,8.166666666666666,5.033333333333333,2.3666666666666667,4.55,2.933333333333333,4.716666666666667,7.0,7.563068160475615,10.908712114635714,6.387487769068525,2.960855732160327,5.894913061275798,4.123105625617661,6.754011153874908,8.80719402912566,3432.0,7140.0,2448.0,526.0,2085.0,1020.0,2737.0,4654.0,22.368361581920908,53.19209039548026,15.727683615819204,3.2192090395480224,14.285593220338985,8.537853107344633,23.765819209039545,29.050847457627118,570.0,851.0,487.0,239.0,418.0,307.0,509.0,693.0,5.0
501.0,604.0,279.0,138.0,257.0,190.0,250.0,473.0,8.35,10.066666666666666,4.65,2.3,4.283333333333333,3.1666666666666665,4.166666666666667,7.883333333333334,11.118303227861105,13.467244212037839,6.22227182519911,2.932575659723036,5.545268253204709,4.08656334834051,5.776388721914988,10.792744476421802,7417.0,10882.0,2323.0,516.0,1845.0,1002.0,2002.0,6989.0,54.80762711864409,81.38531073446327,17.38389830508474,3.3661016949152534,12.613276836158194,6.785310734463277,16.276836158192094,55.25734463276837,872.0,1052.0,460.0,190.0,378.0,300.0,455.0,816.0,5.0
293.0,447.0,266.0,138.0,234.0,207.0,336.0,389.0,4.883333333333334,7.45,4.433333333333334,2.3,3.9,3.45,5.6,6.483333333333333,6.216912416947821,9.895285072531598,5.422176684690384,3.1622776601683795,5.319774431308154,4.5661800227323495,6.797058187186572,7.868714422741918,2319.0,5875.0,1764.0,600.0,1698.0,1251.0,2772.0,3715.0,15.053954802259886,43.13305084745764,9.91073446327684,4.7898305084745765,13.311864406779653,9.099152542372881,15.091525423728815,20.22005649717514,470.0,728.0,399.0,227.0,370.0,331.0,523.0,641.0,5.0
428.0,444.0,182.0,111.0,281.0,208.0,351.0,483.0,7.133333333333334,7.4,3.033333333333333,1.85,4.683333333333334,3.466666666666667,5.85,8.05,9.738240771994361,9.774115475751927,3.9115214431215892,2.2985502677412417,6.4640028877881335,4.857983120596447,7.917280677943237,11.142261888862603,5690.0,5732.0,918.0,317.0,2507.0,1416.0,3761.0,7449.0,44.69378531073446,41.46440677966101,6.202259887005651,1.8923728813559324,20.186158192090392,11.778531073446326,28.943220338983046,60.35338983050849,713.0,798.0,262.0,170.0,451.0,336.0,545.0,811.0,5.0
379.0,455.0,164.0,121.0,271.0,218.0,334.0,438.0,6.316666666666666,7.583333333333333,2.7333333333333334,2.0166666666666666,4.516666666666667,3.6333333333333333,5.566666666666666,7.3,8.301606270274847,9.457801012920498,3.483293460696835,2.7718826333979822,6.362651438931205,4.9966655548141965,7.928850273946827,10.502380682492898,4135.0,5367.0,728.0,461.0,2429.0,1498.0,3772.0,6618.0,29.508192090395468,32.484463276836145,4.741242937853108,3.6776836158192037,20.42344632768362,11.964971751412438,32.41920903954802,57.976271186440655,643.0,739.0,234.0,181.0,472.0,338.0,551.0,750.0,5.0
533.0,448.0,269.0,103.0,240.0,236.0,700.0,568.0,8.883333333333333,7.466666666666667,4.483333333333333,1.7166666666666666,4.0,3.933333333333333,11.666666666666666,9.466666666666667,10.982561935480566,9.993331109628393,5.818075283115543,2.2323380867004294,5.609515724790034,5.282045058497703,16.80178561939177,12.157302332343306,7237.0,5992.0,2031.0,299.0,1888.0,1674.0,16938.0,8868.0,42.4098870056497,44.863276836158185,13.982768361581916,2.0709039548022607,15.728813559322035,12.639548022598866,148.66666666666677,59.16836158192091,863.0,679.0,441.0,173.0,394.0,354.0,1190.0,1040.0,5.0
643.0,481.0,255.0,143.0,237.0,227.0,653.0,616.0,10.716666666666667,8.016666666666667,4.25,2.3833333333333333,3.95,3.783333333333333,10.883333333333333,10.266666666666667,14.511489700693494,10.197221843881467,5.539253860704827,3.0027764929589194,5.097384950475424,5.7778311963342555,14.80146389156604,13.177000164427916,12635.0,6239.0,1841.0,541.0,1559.0,2003.0,13145.0,10418.0,97.35903954802255,40.38954802259886,12.834745762711865,3.3929378531073464,10.556779661016952,19.392937853107345,102.34209039548023,69.38531073446329,1050.0,810.0,458.0,227.0,364.0,363.0,1012.0,972.0,5.0
572.0,440.0,214.0,117.0,253.0,237.0,573.0,516.0,9.533333333333333,7.333333333333333,3.566666666666667,1.95,4.216666666666667,3.95,9.55,8.6,12.54325848148452,9.412757300600074,4.203173404306164,2.4596747752497685,5.643580423808985,5.24563310446572,13.02625553769514,11.350477229320948,9440.0,5316.0,1060.0,363.0,1911.0,1651.0,10181.0,7730.0,67.57514124293787,35.41242937853107,5.029378531073447,2.285593220338984,14.308192090395478,12.116101694915253,79.81101694915252,55.80338983050851,921.0,694.0,345.0,162.0,409.0,369.0,986.0,848.0,5.0
548.0,472.0,210.0,127.0,321.0,244.0,336.0,580.0,9.133333333333333,7.866666666666666,3.5,2.1166666666666667,5.35,4.066666666666666,5.6,9.666666666666666,11.366617790706258,10.196404595084813,4.611579628139003,2.7416540019970914,6.579007017273453,5.354126134736337,7.143761847467575,12.517987058628874,7752.0,6238.0,1276.0,451.0,2597.0,1720.0,3062.0,9402.0,46.55819209039547,42.795480225988705,9.169491525423728,3.087853107344631,14.909322033898299,12.334463276836159,20.006779661016942,64.32768361581924,959.0,741.0,310.0,197.0,525.0,436.0,548.0,1031.0,5.0
667.0,511.0,275.0,138.0,285.0,227.0,353.0,668.0,11.116666666666667,8.516666666666667,4.583333333333333,2.3,4.75,3.783333333333333,5.883333333333334,11.133333333333333,13.363507523600731,10.987113664046015,5.734399125743981,2.8809720581775866,5.838093296045665,4.88023223491123,7.385797181076664,13.48332303254654,10715.0,7243.0,1973.0,498.0,2045.0,1429.0,3273.0,10908.0,55.935310734463265,48.9997175141243,12.077683615819213,3.061016949152542,11.716101694915254,9.664124293785308,20.274293785310746,58.82937853107344,1198.0,862.0,476.0,219.0,418.0,325.0,568.0,1148.0,5.0
426.0,520.0,258.0,140.0,294.0,271.0,360.0,424.0,7.1,8.666666666666666,4.3,2.3333333333333335,4.9,4.516666666666667,6.0,7.066666666666666,8.942408325874338,10.50872653242691,5.095749863039459,2.851899951494325,6.153589738247641,5.602082945952633,7.989576542804589,9.277212224944876,4798.0,6626.0,1558.0,488.0,2272.0,1883.0,3830.0,5164.0,30.05762711864406,35.920903954802256,7.603389830508473,2.7344632768361588,14.091525423728815,11.169209039548022,28.305084745762713,36.74124293785311,660.0,802.0,405.0,206.0,471.0,439.0,593.0,702.0,5.0
733.0,445.0,203.0,122.0,567.0,527.0,143.0,253.0,12.216666666666667,7.416666666666667,3.3833333333333333,2.033333333333333,9.45,8.783333333333333,2.3833333333333333,4.216666666666667,15.67322557739791,9.385272150200725,4.125126260693928,2.569046515733026,11.588068576485615,10.743214912988881,2.9860788111948193,5.466565039705769,14739.0,5285.0,1021.0,396.0,8057.0,6925.0,535.0,1793.0,98.03700564971751,33.637005649717516,5.664124293785309,2.5073446327683597,45.74322033898305,38.918361581920905,3.2912429378531085,12.308192090395481,1137.0,605.0,276.0,181.0,854.0,876.0,237.0,412.0,6.0
901.0,515.0,159.0,116.0,607.0,490.0,128.0,233.0,15.016666666666667,8.583333333333334,2.65,1.9333333333333333,10.116666666666667,8.166666666666666,2.1333333333333333,3.8833333333333333,18.96004571021213,11.358550376992069,3.461695153148719,2.556038601690775,15.172892495060612,11.366617790706258,2.943920288775949,5.100653552895616,21569.0,7741.0,719.0,392.0,13813.0,7752.0,520.0,1561.0,136.2539548022599,56.28107344632767,5.044915254237291,2.8429378531073444,130.03700564971754,63.56497175141248,4.185310734463276,11.12175141242938,1466.0,821.0,216.0,152.0,1088.0,832.0,226.0,347.0,6.0
827.0,608.0,214.0,158.0,355.0,305.0,127.0,305.0,13.783333333333333,10.133333333333333,3.566666666666667,2.6333333333333333,5.916666666666667,5.083333333333333,2.1166666666666667,5.083333333333333,19.090573590125572,12.920268315067352,4.5423929082955095,3.260879227038826,7.866596044880742,6.800735254367722,2.8780780624113262,6.214230979507172,21867.0,10016.0,1238.0,638.0,3713.0,2775.0,497.0,2317.0,177.42683615819215,65.33785310734461,8.04632768361582,3.7615819209039554,27.33192090395479,20.75564971751414,3.867514124293785,12.992937853107346,1389.0,954.0,306.0,231.0,572.0,476.0,191.0,503.0,6.0
763.0,651.0,210.0,184.0,469.0,457.0,169.0,295.0,12.716666666666667,10.85,3.5,3.066666666666667,7.816666666666666,7.616666666666666,2.816666666666667,4.916666666666667,16.119863522995473,13.64612277046732,4.535048695071164,3.737200378179723,10.492060490358094,9.955735365439695,3.630886025935451,6.165765699948926,15591.0,11173.0,1234.0,838.0,6605.0,5947.0,791.0,2281.0,99.79971751412425,69.65508474576272,8.457627118644067,4.63954802259887,49.813276836158195,41.79971751412428,5.33870056497175,14.077683615819213,1188.0,967.0,306.0,260.0,665.0,732.0,278.0,481.0,6.0
993.0,600.0,206.0,140.0,416.0,427.0,189.0,258.0,16.55,10.0,3.433333333333333,2.3333333333333335,6.933333333333334,7.116666666666666,3.15,4.3,21.54646142641524,12.320714265009151,4.10690475500305,3.0386400466875525,9.418067742376884,9.098534680558915,4.228869037146142,5.867992274477986,27855.0,9108.0,1012.0,554.0,5322.0,4967.0,1073.0,2066.0,193.57372881355937,52.67796610169491,5.164971751412432,3.8531073446327686,41.31751412429378,32.68107344632767,8.095762711864406,16.213559322033902,1631.0,894.0,301.0,228.0,642.0,720.0,331.0,416.0,6.0
882.0,480.0,193.0,152.0,525.0,463.0,237.0,320.0,14.7,8.0,3.216666666666667,2.533333333333333,8.75,7.716666666666667,3.95,5.333333333333333,19.149412523625887,11.177358065899712,4.112987559751022,3.22490309931942,11.889070611279925,9.89023087024093,5.358793396527493,7.082843120291926,22002.0,7496.0,1015.0,624.0,8481.0,5869.0,1723.0,3010.0,153.16271186440673,61.96610169491525,6.681073446327684,4.049717514124294,65.88559322033899,38.918361581920905,13.336440677966102,22.090395480225986,1403.0,782.0,299.0,244.0,847.0,801.0,415.0,531.0,6.0
797.0,499.0,156.0,143.0,543.0,403.0,206.0,353.0,13.283333333333333,8.316666666666666,2.6,2.3833333333333333,9.05,6.716666666666667,3.433333333333333,5.883333333333334,16.543377325483856,10.241256433335382,3.5071355833500366,3.057776970284131,10.988630487917955,8.587782018658833,4.183300132670378,7.96345821026686,16421.0,6293.0,738.0,561.0,7245.0,4425.0,1050.0,3805.0,98.88446327683614,36.321751412429386,5.633898305084749,3.731920903954803,39.50593220338982,29.121751412429365,5.809039548022601,29.291242937853113,1315.0,736.0,236.0,216.0,875.0,597.0,354.0,629.0,6.0
831.0,474.0,135.0,122.0,514.0,581.0,173.0,403.0,13.85,7.9,2.25,2.033333333333333,8.566666666666666,9.683333333333334,2.8833333333333333,6.716666666666667,17.826478433311873,9.857315388414163,2.935415927371565,2.5099800796022267,11.043851985003542,12.231789185015685,3.6900767833023025,8.973107971414736,19067.0,5830.0,517.0,378.0,7318.0,8977.0,817.0,4831.0,128.09576271186438,35.34576271186441,3.614406779661017,2.202259887005649,49.40225988700565,56.796327683615814,5.392937853107345,36.00310734463277,1394.0,816.0,210.0,196.0,814.0,957.0,262.0,657.0,6.0
991.0,472.0,172.0,123.0,427.0,392.0,161.0,332.0,16.516666666666666,7.866666666666666,2.8666666666666667,2.05,7.116666666666666,6.533333333333333,2.683333333333333,5.533333333333333,20.235694535481933,10.401922899156675,3.5777087639996634,2.6551836094703507,9.08019823572151,8.975893641675277,3.432686023121447,6.8507907086214015,24569.0,6492.0,768.0,423.0,4947.0,4834.0,707.0,2816.0,138.99971751412434,47.10056497175141,4.659887005649717,2.8957627118644074,32.34209039548021,38.524293785310746,4.660734463276836,16.592090395480223,1686.0,753.0,242.0,180.0,625.0,616.0,236.0,545.0,6.0
724.0,525.0,186.0,118.0,355.0,421.0,247.0,325.0,12.066666666666666,8.75,3.1,1.9666666666666666,5.916666666666667,7.016666666666667,4.116666666666666,5.416666666666667,15.32536024590178,11.139269874337964,3.7416573867739413,2.4698178070456938,7.65397500213669,8.855318552523487,5.213763835592607,7.156582051976115,14092.0,7445.0,840.0,366.0,3515.0,4705.0,1631.0,3073.0,90.77514124293788,48.32627118644068,4.464406779661019,2.27005649717514,23.97598870056496,29.677683615819205,10.409887005649717,22.24717514124294,1104.0,833.0,253.0,171.0,539.0,718.0,368.0,559.0,6.0
792.0,633.0,164.0,140.0,359.0,427.0,199.0,307.0,13.2,10.55,2.7333333333333334,2.3333333333333335,5.983333333333333,7.116666666666666,3.316666666666667,5.116666666666666,16.348292469449728,13.440610105199838,3.6239941133138354,2.816617356570348,7.601534932718084,9.270922284217466,4.220979349234804,6.41482657598785,16036.0,10839.0,788.0,476.0,3467.0,5157.0,1069.0,2469.0,94.60338983050846,70.52288135593221,5.758192090395479,2.531073446327683,22.355649717514122,35.901412429378524,6.931920903954802,15.223446327683613,1313.0,1092.0,230.0,190.0,479.0,709.0,302.0,542.0,6.0
983.0,623.0,188.0,131.0,473.0,581.0,207.0,364.0,16.383333333333333,10.383333333333333,3.1333333333333333,2.183333333333333,7.883333333333334,9.683333333333334,3.45,6.066666666666666,20.505690267175435,13.871433475552072,3.9285281382896233,2.572288216096063,10.40112173437718,13.290974381135493,4.406434688800762,8.12403840463596,25229.0,11545.0,926.0,397.0,6491.0,10599.0,1165.0,3960.0,154.647175141243,86.03700564971753,5.7107344632768315,1.8810734463276828,46.81666666666664,84.28785310734459,7.641525423728809,29.690395480225977,1704.0,907.0,240.0,177.0,752.0,984.0,335.0,600.0,6.0
500.0,454.0,162.0,156.0,377.0,445.0,169.0,283.0,8.333333333333334,7.566666666666666,2.7,2.6,6.283333333333333,7.416666666666667,2.816666666666667,4.716666666666667,11.131037687475503,10.132456102380443,3.449637662132068,3.2914029430219167,8.317651912248632,9.952386648437649,3.788139384975162,6.20349363934012,7434.0,6160.0,714.0,650.0,4151.0,5943.0,861.0,2309.0,55.378531073446304,46.18192090395479,4.6881355932203395,4.142372881355933,30.206497175141248,44.789548022598865,6.525141242937851,16.511581920903954,826.0,692.0,228.0,221.0,547.0,757.0,233.0,480.0,6.0
750.0,511.0,156.0,115.0,347.0,429.0,224.0,273.0,12.5,8.516666666666667,2.6,1.9166666666666667,5.783333333333333,7.15,3.7333333333333334,4.55,16.08311744241976,11.255369089165105,3.0983866769659336,2.5132979661525745,7.347335117805185,9.413642582266796,5.272570530585627,6.06217782649107,15520.0,7601.0,576.0,379.0,3239.0,5317.0,1668.0,2205.0,104.15254237288136,55.06751412429377,2.888135593220341,2.6878531073446323,20.884463276836158,38.12966101694916,14.097175141242937,16.319491525423732,1104.0,814.0,222.0,178.0,531.0,736.0,387.0,485.0,6.0
801.0,453.0,154.0,118.0,413.0,458.0,255.0,338.0,13.35,7.55,2.566666666666667,1.9666666666666666,6.883333333333334,7.633333333333334,4.25,5.633333333333334,17.407373916437443,9.880114709185651,3.235222815613581,2.4899799195977463,8.973107971414736,9.377277501137169,5.24563310446572,7.483314773547883,18181.0,5857.0,628.0,372.0,4831.0,5276.0,1651.0,3360.0,126.90932203389832,41.302542372881355,3.944632768361583,2.371751412429378,33.69802259887007,30.1683615819209,9.614406779661017,24.676836158192085,1318.0,730.0,193.0,159.0,616.0,723.0,401.0,562.0,6.0
690.0,293.0,151.0,121.0,373.0,435.0,208.0,367.0,11.5,4.883333333333334,2.5166666666666666,2.0166666666666666,6.216666666666667,7.25,3.466666666666667,6.116666666666666,14.822280526288793,6.122363378086385,3.013856886670854,2.572288216096063,7.734123522847736,9.699656351300975,4.498147766951785,7.774959806970066,13182.0,2249.0,545.0,397.0,3589.0,5645.0,1214.0,3627.0,88.9322033898305,13.867514124293782,2.796327683615821,2.5929378531073435,21.52853107344633,42.22457627118644,8.354802259887002,23.42683615819209,1069.0,475.0,234.0,185.0,611.0,813.0,340.0,619.0,6.0
718.0,361.0,138.0,101.0,329.0,372.0,196.0,285.0,11.966666666666667,6.016666666666667,2.3,1.6833333333333333,5.483333333333333,6.2,3.2666666666666666,4.75,16.405283701702125,7.772815877574012,2.8106938645110393,2.0289570391377603,7.013083012009292,8.598449472627802,4.222953153106642,6.781101188843397,16148.0,3625.0,474.0,247.0,2951.0,4436.0,1070.0,2759.0,128.0666666666666,24.62683615819209,2.6542372881355947,1.304802259887006,19.44039548022598,36.09491525423729,7.283615819209036,23.81779661016949,1097.0,607.0,188.0,155.0,537.0,654.0,326.0,468.0,6.0
649.0,365.0,149.0,115.0,342.0,420.0,199.0,322.0,10.816666666666666,6.083333333333333,2.4833333333333334,1.9166666666666667,5.7,7.0,3.316666666666667,5.366666666666666,14.430869689661812,7.575178765767402,3.1118054780678905,2.4866309202077685,7.35753581937141,9.731392500562292,4.1372293466360635,6.913754406977442,12495.0,3443.0,581.0,371.0,3248.0,5682.0,1027.0,2868.0,92.79632768361583,20.72175141242938,3.5759887005649733,2.552259887005649,22.010169491525428,46.47457627118644,6.220056497175141,19.320903954802255,1024.0,564.0,175.0,155.0,552.0,746.0,303.0,579.0,6.0
2120.0,1197.0,390.0,174.0,134.0,113.0,136.0,342.0,35.333333333333336,19.95,6.5,2.9,2.2333333333333334,1.8833333333333333,2.2666666666666666,5.7,43.128876637352846,26.766583644537082,8.280499179799891,3.6239941133138354,2.8925190866555517,2.327373340628157,2.9832867780352594,7.54983443527075,111606.0,42987.0,4114.0,788.0,502.0,325.0,534.0,3420.0,622.0225988700564,323.8449152542373,26.76271186440678,4.803389830508478,3.4361581920903936,1.9014124293785333,3.8259887005649738,24.925423728813563,3628.0,2157.0,593.0,243.0,223.0,177.0,221.0,611.0,7.0
1604.0,1045.0,402.0,167.0,138.0,138.0,190.0,265.0,26.733333333333334,17.416666666666668,6.7,2.783333333333333,2.3,2.3,3.1666666666666665,4.416666666666667,35.47910183004449,21.83765860465204,8.07465169527454,3.5425979167836705,3.093002855909879,3.2197308376115337,4.045573712919673,5.6730356365294705,75526.0,28613.0,3912.0,753.0,574.0,622.0,982.0,1931.0,553.3175141242938,176.48446327683618,20.654237288135594,4.884463276836155,4.349152542372881,5.162711864406778,6.44632768361582,12.891242937853105,2780.0,1873.0,649.0,261.0,211.0,221.0,290.0,436.0,7.0
1644.0,1049.0,352.0,154.0,149.0,130.0,174.0,295.0,27.4,17.483333333333334,5.866666666666666,2.566666666666667,2.4833333333333334,2.1666666666666665,2.9,4.916666666666667,34.73806749566437,21.133307045199214,7.407203700902701,3.3565855667130946,3.3590673308722665,3.183289703016886,3.8297084310253524,6.571402691460426,72404.0,26797.0,3292.0,676.0,677.0,608.0,880.0,2591.0,463.7016949152543,143.3387005649718,20.795480225988697,4.75819209039548,5.203107344632771,5.531073446327685,6.362711864406783,19.3319209039548,2784.0,1694.0,565.0,249.0,258.0,231.0,251.0,516.0,7.0
1780.0,1111.0,308.0,154.0,101.0,108.0,121.0,296.0,29.666666666666668,18.516666666666666,5.133333333333334,2.566666666666667,1.6833333333333333,1.8,2.0166666666666666,4.933333333333334,38.22302970723278,24.48843264346114,6.784786904047417,3.265986323710904,2.202271554554524,2.6267851073127395,2.539685019840059,6.867799259345505,87660.0,35981.0,2762.0,640.0,291.0,414.0,387.0,2830.0,590.7344632768361,261.16920903954815,20.015819209039552,4.148022598870056,2.0505649717514127,3.72203389830508,2.423446327683615,23.215819209039545,2984.0,1891.0,514.0,236.0,146.0,164.0,170.0,519.0,7.0
2176.0,1392.0,435.0,188.0,128.0,99.0,139.0,389.0,36.266666666666666,23.2,7.25,3.1333333333333333,2.1333333333333333,1.65,2.316666666666667,6.483333333333333,45.91513911554662,30.082109855083857,8.919080670113933,3.799122705748438,2.943920288775949,2.0615528128088303,3.019381835188565,8.73403305084961,126492.0,54296.0,4773.0,866.0,520.0,255.0,547.0,4577.0,806.3683615819212,372.9084745762711,27.444915254237287,4.693785310734462,4.185310734463273,1.553389830508475,3.813276836158192,34.83022598870056,3500.0,2446.0,678.0,279.0,205.0,144.0,219.0,641.0,7.0
1603.0,1108.0,331.0,168.0,120.0,91.0,168.0,315.0,26.716666666666665,18.466666666666665,5.516666666666667,2.8,2.0,1.5166666666666666,2.8,5.25,34.471002306286366,24.65900781999687,7.029698902987714,3.591656999213594,2.6076809620810595,2.0371548787463363,3.687817782917155,6.5,71295.0,36484.0,2965.0,774.0,408.0,249.0,816.0,2535.0,482.5115819209039,271.57514124293783,19.304802259887005,5.145762711864406,2.847457627118644,1.8810734463276848,5.857627118644067,14.936440677966102,2419.0,1787.0,493.0,223.0,190.0,137.0,256.0,459.0,7.0
1874.0,875.0,356.0,180.0,139.0,78.0,102.0,319.0,31.233333333333334,14.583333333333334,5.933333333333334,3.0,2.316666666666667,1.3,1.7,5.316666666666666,37.024766485871766,19.02147908724941,7.576278769950324,3.637764881535547,2.80178514522438,1.760681686165901,2.2949219304078006,6.571402691460426,82250.0,21709.0,3444.0,794.0,471.0,186.0,316.0,2591.0,402.0124293785311,151.67090395480224,22.571751412429375,4.305084745762712,2.525141242937854,1.4338983050847467,2.416949152542373,15.169209039548024,3125.0,1433.0,570.0,275.0,207.0,114.0,165.0,524.0,7.0
1759.0,1105.0,373.0,173.0,136.0,87.0,99.0,255.0,29.316666666666666,18.416666666666668,6.216666666666667,2.8833333333333333,2.2666666666666666,1.45,1.65,4.25,35.0149967870911,23.720947142416833,7.479973261984297,3.418089134784717,2.792848008753788,1.7935068069752806,2.2693611435820435,6.246332257146322,73563.0,33761.0,3357.0,701.0,468.0,193.0,309.0,2341.0,372.7963276836158,227.29802259887003,17.59632768361583,3.4268361581920908,2.707344632768363,1.133050847457628,2.4686440677966113,21.309322033898304,2904.0,1996.0,605.0,263.0,193.0,120.0,164.0,435.0,7.0
1968.0,1265.0,350.0,155.0,120.0,115.0,137.0,332.0,32.8,21.083333333333332,5.833333333333333,2.5833333333333335,2.0,1.9166666666666667,2.283333333333333,5.533333333333333,43.62185996340214,26.1116193803959,7.176350047203662,3.5237290853109955,2.562550812504343,2.5199206336708304,2.895398648430529,7.5960516059331775,114172.0,40909.0,3090.0,745.0,394.0,381.0,503.0,3462.0,841.0440677966095,241.33192090395488,17.768361581920907,5.840395480225987,2.610169491525424,2.7217514124293776,3.2234463276836176,27.541242937853124,3243.0,2013.0,500.0,236.0,200.0,191.0,218.0,555.0,7.0
1975.0,1324.0,369.0,165.0,101.0,114.0,163.0,396.0,32.916666666666664,22.066666666666666,6.15,2.75,1.6833333333333333,1.9,2.716666666666667,6.6,42.60301241305204,27.379432670041453,8.277479487541282,3.495234851432256,2.101586702153082,2.243509156061845,3.476108935769035,8.774964387392123,108901.0,44978.0,4111.0,733.0,265.0,302.0,725.0,4620.0,743.9081920903953,267.14802259887006,31.214406779661015,4.733050847457627,1.6098870056497172,1.447457627118644,4.7827683615819225,34.00677966101695,3153.0,2301.0,627.0,265.0,156.0,181.0,281.0,700.0,7.0
1945.0,1034.0,397.0,188.0,124.0,96.0,140.0,347.0,32.416666666666664,17.233333333333334,6.616666666666666,3.1333333333333333,2.066666666666667,1.6,2.3333333333333335,5.783333333333333,39.20395388222979,22.217110523198105,8.257319984918432,3.803507153492243,2.562550812504343,2.0248456731316584,2.960855732160327,7.288118184186277,92217.0,29616.0,4091.0,868.0,394.0,246.0,526.0,3187.0,494.348870056497,199.94463276836157,24.816666666666677,4.727683615819208,2.3344632768361593,1.5661016949152533,3.3785310734463283,20.00310734463277,2888.0,1421.0,609.0,264.0,184.0,142.0,205.0,545.0,7.0
1854.0,1117.0,339.0,154.0,106.0,86.0,135.0,355.0,30.9,18.616666666666667,5.65,2.566666666666667,1.7666666666666666,1.4333333333333333,2.25,5.916666666666667,39.09305138597736,25.275482191246127,7.561966234606799,3.2197308376115337,2.228601953392904,1.9235384061671346,2.8606526061955395,8.273451516749223,91696.0,38331.0,3431.0,622.0,298.0,222.0,491.0,4107.0,583.1762711864405,297.22344632768363,25.688983050847447,3.842937853107345,1.8768361581920898,1.6734463276836158,3.1737288135593222,34.0098870056497,2945.0,1834.0,495.0,185.0,151.0,119.0,206.0,630.0,7.0
1597.0,1201.0,460.0,163.0,103.0,88.0,111.0,355.0,26.616666666666667,20.016666666666666,7.666666666666667,2.716666666666667,1.7166666666666666,1.4666666666666666,1.85,5.916666666666667,34.31739112073255,24.860611416455548,9.886017061149214,3.388706734630976,2.262005010309806,1.8973665961010275,2.4324199198877374,7.986446852845972,70661.0,37083.0,5864.0,689.0,307.0,216.0,355.0,3827.0,477.18954802259907,221.06751412429372,39.61581920903956,4.1725988700565,2.206497175141244,1.473446327683617,2.536440677966102,29.264124293785287,2461.0,2016.0,754.0,238.0,167.0,122.0,172.0,597.0,7.0
1629.0,1365.0,493.0,163.0,103.0,94.0,119.0,391.0,27.15,22.75,8.216666666666667,2.716666666666667,1.7166666666666666,1.5666666666666667,1.9833333333333334,6.516666666666667,34.77906458393229,28.80190965890977,10.457055034760025,3.383784863137726,2.0696215435033847,1.96638416050035,2.4866309202077685,8.896628574915331,72575.0,49773.0,6561.0,687.0,257.0,232.0,371.0,4749.0,480.4686440677965,317.27542372881356,42.54548022598871,4.138700564971753,1.3590395480225994,1.4361581920903954,2.287853107344633,37.30480225988701,2948.0,2310.0,784.0,247.0,159.0,148.0,191.0,669.0,7.0
1871.0,1255.0,415.0,159.0,90.0,88.0,118.0,442.0,31.183333333333334,20.916666666666668,6.916666666666667,2.65,1.5,1.4666666666666666,1.9666666666666666,7.366666666666666,40.09842058402467,25.612171585660857,8.62071149422521,3.2326459750489227,2.016597794967223,1.8073922282301278,2.6267851073127395,10.757942802103631,96473.0,39359.0,4459.0,627.0,244.0,196.0,414.0,6944.0,646.2539548022597,222.17937853107335,26.925141242937848,3.4855932203389823,1.847457627118644,1.1344632768361587,3.0836158192090397,62.50734463276833,3013.0,2172.0,671.0,257.0,124.0,105.0,147.0,725.0,7.0
2969.0,1695.0,529.0,203.0,138.0,104.0,170.0,502.0,49.483333333333334,28.25,8.816666666666666,3.3833333333333333,2.3,1.7333333333333334,2.8333333333333335,8.366666666666667,59.64520098046447,35.06161243677573,10.482525141078048,4.260281680828158,3.24037034920393,2.1525179054617256,3.4737107920301407,11.565754046609614,213453.0,73759.0,6593.0,1089.0,630.0,278.0,724.0,8026.0,1127.7454802259886,438.5635593220339,32.69463276836158,6.81666666666667,5.2983050847457624,1.6564971751412425,4.107344632768362,64.84632768361583,4951.0,2772.0,802.0,264.0,204.0,148.0,260.0,838.0,7.0
2622.0,1784.0,614.0,209.0,150.0,139.0,216.0,604.0,43.7,29.733333333333334,10.233333333333333,3.4833333333333334,2.5,2.316666666666667,3.6,10.066666666666666,52.72064744164915,38.4993506438745,12.747548783981962,4.481443219916251,3.0983866769659336,3.03589635308366,4.6833036772489285,12.791924535945846,166768.0,88932.0,9750.0,1205.0,576.0,553.0,1316.0,9818.0,884.5186440677967,608.2666666666663,58.75819209039549,8.084463276836154,3.406779661016949,3.9149717514124296,9.12542372881356,63.35141242937853,3977.0,2903.0,1069.0,316.0,222.0,200.0,329.0,980.0,7.0
2610.0,1650.0,505.0,214.0,134.0,129.0,172.0,501.0,43.5,27.5,8.416666666666666,3.566666666666667,2.2333333333333334,2.15,2.8666666666666667,8.35,50.26595932305148,33.77721125255903,10.417133322880469,4.408325456829762,2.7264140062238043,2.711088342345192,3.737200378179723,9.903703011163719,151600.0,68454.0,6511.0,1166.0,446.0,441.0,838.0,5885.0,645.1694915254237,391.1694915254237,38.31497175141243,6.825988700564974,2.4870056497175135,2.7737288135593214,5.846327683615815,28.841525423728807,4058.0,2705.0,780.0,329.0,206.0,216.0,306.0,863.0,7.0
159.0,226.0,194.0,130.0,481.0,276.0,188.0,105.0,2.65,3.7666666666666666,3.2333333333333334,2.1666666666666665,8.016666666666667,4.6,3.1333333333333333,1.75,3.788139384975162,4.979959839195493,4.179314138308661,2.8751811537130436,9.959082956443998,6.421318660005383,3.96232255123179,2.187083293643233,861.0,1488.0,1048.0,496.0,5951.0,2474.0,942.0,287.0,7.451694915254238,10.792090395480228,7.131073446327687,3.632768361581923,35.508192090395475,20.413559322033898,5.9819209039548,1.75,278.0,350.0,267.0,187.0,699.0,455.0,286.0,147.0,8.0
162.0,207.0,182.0,131.0,490.0,241.0,244.0,108.0,2.7,3.45,3.033333333333333,2.183333333333333,8.166666666666666,4.016666666666667,4.066666666666666,1.8,4.041451884327381,4.663689526544408,3.714835124201342,2.7416540019970914,10.936178491593852,5.937171043518958,5.48938369339704,2.359378449224852,980.0,1305.0,828.0,451.0,7176.0,2115.0,1808.0,334.0,9.196610169491525,10.01440677966102,4.676836158192089,2.7963276836158184,53.80225988700567,19.44039548022599,13.825988700564974,2.366101694915254,266.0,332.0,215.0,187.0,863.0,404.0,405.0,159.0,8.0
137.0,181.0,134.0,95.0,318.0,146.0,230.0,112.0,2.283333333333333,3.0166666666666666,2.2333333333333334,1.5833333333333333,5.3,2.433333333333333,3.8333333333333335,1.8666666666666667,3.019381835188565,4.0269922605670185,2.7141603981096374,1.9958289839896939,7.4139508136125825,3.13581462037113,5.409867527644892,2.3664319132398464,547.0,973.0,442.0,239.0,3298.0,590.0,1756.0,336.0,3.969209039548024,7.237005649717516,2.4192090395480212,1.501412429378531,27.332203389830507,3.978531073446328,14.819209039548031,2.1514124293785324,176.0,306.0,192.0,114.0,532.0,239.0,374.0,170.0,8.0
145.0,292.0,127.0,131.0,579.0,286.0,187.0,200.0,2.4166666666666665,4.866666666666666,2.1166666666666667,2.183333333333333,9.65,4.766666666666667,3.1166666666666667,3.3333333333333335,2.9524001535473925,6.258327785172862,2.598076211353316,2.8664728616658257,12.209968604928243,6.04979338490167,4.197221303036887,4.339738855430512,523.0,2350.0,405.0,493.0,8945.0,2196.0,1057.0,1130.0,2.9251412429378534,15.744632768361583,2.30819209039548,3.508192090395479,56.90932203389831,14.114124293785313,8.037005649717512,7.853107344632768,209.0,466.0,198.0,209.0,968.0,396.0,308.0,329.0,8.0
133.0,257.0,101.0,151.0,616.0,257.0,224.0,172.0,2.216666666666667,4.283333333333333,1.6833333333333333,2.5166666666666666,10.266666666666667,4.283333333333333,3.7333333333333334,2.8666666666666667,2.8722813232690143,5.818075283115543,2.179449471770337,3.4034296427770228,14.89966442575134,5.95958611538307,5.594640292279746,3.642343567906063,495.0,2031.0,285.0,695.0,13320.0,2131.0,1878.0,796.0,3.3929378531073455,15.765819209039549,1.9488700564971755,5.338700564971749,118.57175141242936,17.46073446327683,17.65649717514124,5.134463276836157,192.0,432.0,126.0,241.0,1048.0,387.0,323.0,261.0,8.0
147.0,313.0,111.0,127.0,578.0,288.0,188.0,162.0,2.45,5.216666666666667,1.85,2.1166666666666667,9.633333333333333,4.8,3.1333333333333333,2.7,3.052321520853704,6.672081134598609,2.5199206336708304,2.6801741236966925,13.066496597532689,6.410928169929843,4.242640687119285,3.9157800414902435,559.0,2671.0,381.0,431.0,10244.0,2466.0,1080.0,920.0,3.3703389830508463,17.59632768361582,2.9771186440677964,2.7488700564971755,79.25310734463278,18.36610169491526,8.320903954802255,8.17966101694915,219.0,450.0,159.0,206.0,879.0,480.0,309.0,269.0,8.0
209.0,112.0,91.0,109.0,258.0,476.0,377.0,246.0,3.4833333333333334,1.8666666666666667,1.5166666666666666,1.8166666666666667,4.3,7.933333333333334,6.283333333333333,4.1,4.55887413001646,2.330951164939612,1.91049731745428,2.355843797877949,6.6907896893167,10.011659869039367,8.224962005991275,4.9396356140913875,1247.0,326.0,219.0,333.0,2686.0,6014.0,4059.0,1464.0,8.796327683615818,1.9819209039548034,1.3725988700564975,2.287853107344634,26.722033898305092,37.92768361581921,28.647175141242933,7.7186440677966095,320.0,157.0,114.0,164.0,438.0,720.0,608.0,372.0,8.0
164.0,104.0,108.0,136.0,483.0,529.0,357.0,189.0,2.7333333333333334,1.7333333333333334,1.8,2.2666666666666666,8.05,8.816666666666666,5.95,3.15,3.65604522218567,2.16794833886788,2.258317958127243,2.9040202019499337,11.362951494513505,10.961295543867067,8.369587803470372,4.100812927538474,802.0,282.0,306.0,506.0,7747.0,7209.0,4203.0,1009.0,5.995480225988702,1.7242937853107332,1.8915254237288142,3.3514124293785303,65.40423728813558,43.135310734463275,35.23474576271188,7.011016949152544,253.0,152.0,164.0,206.0,854.0,890.0,616.0,275.0,8.0
175.0,83.0,95.0,151.0,853.0,403.0,323.0,225.0,2.9166666666666665,1.3833333333333333,1.5833333333333333,2.5166666666666666,14.216666666666667,6.716666666666667,5.383333333333334,3.75,3.810074364978546,1.9621416870348585,1.927865832122834,3.1754264805429417,19.693061383814012,8.120960534321048,7.3132300205403995,4.998333055462925,871.0,231.0,223.0,605.0,23269.0,3957.0,3209.0,1499.0,6.111581920903954,1.9692090395480222,1.230225988700565,3.8132768361581943,188.85056497175137,21.189548022598863,24.918361581920905,11.10593220338983,249.0,128.0,126.0,221.0,1405.0,587.0,513.0,361.0,8.0
223.0,90.0,104.0,229.0,684.0,877.0,578.0,253.0,3.716666666666667,1.5,1.7333333333333334,3.816666666666667,11.4,14.616666666666667,9.633333333333333,4.216666666666667,5.293077239816803,1.9578900207451218,2.37346441585572,4.852834223420372,14.923136399564267,20.58356949931992,12.42309676905615,5.554277630799526,1681.0,230.0,338.0,1413.0,13362.0,25421.0,9260.0,1851.0,14.443785310734459,1.6101694915254237,2.6734463276836156,9.135310734463273,94.31186440677965,213.5963276836158,62.57514124293785,13.291242937853104,374.0,126.0,144.0,366.0,1153.0,1451.0,960.0,438.0,8.0
259.0,106.0,104.0,219.0,786.0,1015.0,572.0,293.0,4.316666666666666,1.7666666666666666,1.7333333333333334,3.65,13.1,16.916666666666668,9.533333333333333,4.883333333333334,6.2809234989768825,2.206052281036573,2.041241452319315,4.72052256994216,17.004901254246278,22.920514828423904,12.480651692386367,6.173869667126661,2367.0,292.0,250.0,1337.0,17350.0,31521.0,9346.0,2287.0,21.169209039548022,1.775141242937853,1.1819209039548018,9.112711864406783,119.5491525423729,243.2302259887007,65.98192090395482,14.511581920903952,412.0,139.0,134.0,338.0,1276.0,1676.0,933.0,427.0,8.0
241.0,109.0,112.0,188.0,868.0,1177.0,548.0,221.0,4.016666666666667,1.8166666666666667,1.8666666666666667,3.1333333333333333,14.466666666666667,19.616666666666667,9.133333333333333,3.683333333333333,5.184914014073264,2.2323380867004294,2.3166067138525404,4.167333280008532,19.13809464567115,26.984872305299746,11.917773841340225,4.692192096096095,1613.0,299.0,322.0,1042.0,21976.0,43691.0,8522.0,1321.0,10.931920903954802,1.7115819209039556,1.9141242937853111,7.6768361581920885,159.64293785310736,349.1895480225989,59.609039548022594,8.592937853107346,376.0,149.0,153.0,304.0,1440.0,1797.0,890.0,336.0,8.0
294.0,131.0,199.0,255.0,595.0,1197.0,633.0,258.0,4.9,2.183333333333333,3.316666666666667,4.25,9.916666666666666,19.95,10.55,4.3,6.6932802122726045,2.7718826333979822,5.216959523196118,5.368115746392459,12.973691327708805,24.912179083064306,12.898966366857978,5.319774431308154,2688.0,461.0,1633.0,1729.0,10099.0,37237.0,9983.0,1698.0,21.142372881355943,2.965819209039548,16.491242937853123,10.936440677966102,71.16242937853107,226.3872881355932,56.014406779660995,9.976271186440677,461.0,169.0,285.0,390.0,1017.0,1869.0,974.0,375.0,8.0
263.0,104.0,97.0,219.0,697.0,1119.0,684.0,274.0,4.383333333333334,1.7333333333333334,1.6166666666666667,3.65,11.616666666666667,18.65,11.4,4.566666666666666,5.914671024945794,2.273030282830976,2.117388328420966,4.766200443400033,14.939321715972694,23.888281646028876,15.063200191194433,5.621387729022079,2099.0,310.0,269.0,1363.0,13391.0,34239.0,13614.0,1896.0,16.037005649717514,2.198870056497175,1.9014124293785308,9.553389830508474,89.73192090395477,226.6042372881355,98.5830508474576,10.927683615819214,376.0,151.0,126.0,347.0,1055.0,1747.0,1138.0,392.0,8.0
300.0,134.0,119.0,180.0,422.0,1116.0,594.0,216.0,5.0,2.2333333333333334,1.9833333333333334,3.0,7.033333333333333,18.6,9.9,3.6,6.44980619863884,2.7141603981096374,2.6488991424111767,4.110960958218893,9.710818709048171,23.96664348631239,12.557866060760482,4.69396776015061,2496.0,442.0,421.0,1014.0,5658.0,34464.0,9462.0,1322.0,16.88135593220339,2.4192090395480212,3.1353107344632734,8.033898305084746,45.59209039548022,232.31186440677962,60.701694915254244,9.227118644067799,441.0,170.0,166.0,295.0,631.0,1844.0,904.0,306.0,8.0
242.0,113.0,123.0,194.0,546.0,1122.0,582.0,164.0,4.033333333333333,1.8833333333333333,2.05,3.2333333333333334,9.1,18.7,9.7,2.7333333333333334,6.26631204670392,2.3909551787239063,2.6362852652928135,4.135214625627067,11.93873248436924,24.984661961558203,13.218673660142054,3.7815340802378077,2356.0,343.0,417.0,1026.0,8552.0,37454.0,10484.0,858.0,23.388700564971742,2.2064971751412434,2.7940677966101695,6.75819209039548,60.73559322033899,279.19661016949163,82.0101694915254,6.944632768361583,418.0,159.0,182.0,301.0,845.0,1811.0,976.0,248.0,8.0
212.0,81.0,100.0,186.0,650.0,974.0,714.0,202.0,3.533333333333333,1.35,1.6666666666666667,3.1,10.833333333333334,16.233333333333334,11.9,3.3666666666666667,4.926120853842978,1.91049731745428,2.1908902300206643,3.812260921465546,14.617341299520465,21.300234740490538,15.943650773897426,4.277849927241488,1456.0,219.0,288.0,872.0,12820.0,27222.0,15252.0,1098.0,11.981920903954801,1.8584745762711878,2.0564971751412418,5.0067796610169495,97.93785310734464,193.40225988700573,114.49830508474581,7.083615819209038,369.0,127.0,144.0,275.0,917.0,1571.0,1191.0,303.0,8.0
281.0,97.0,86.0,159.0,630.0,875.0,594.0,156.0,4.683333333333334,1.6166666666666667,1.4333333333333333,2.65,10.5,14.583333333333334,9.9,2.6,6.830080526611674,2.004162335407655,1.879716290649558,3.6170890690351176,14.086636693452888,18.19752730455432,12.227019260637483,3.265986323710904,2799.0,241.0,212.0,785.0,11906.0,19869.0,8970.0,640.0,25.13531073446328,1.42683615819209,1.5039548022598863,6.163559322033901,89.67796610169492,120.48446327683611,52.362711864406776,3.972881355932205,472.0,142.0,126.0,233.0,1024.0,1179.0,916.0,245.0,8.0
824.0,316.0,154.0,130.0,721.0,550.0,265.0,358.0,13.733333333333333,5.266666666666667,2.566666666666667,2.1666666666666665,12.016666666666667,9.166666666666666,4.416666666666667,5.966666666666667,18.546338362778425,7.06871039629342,3.2093613071762426,2.7141603981096374,15.508599764861644,12.577758146824099,6.198117993929017,7.393691004272944,20638.0,2998.0,618.0,442.0,14431.0,9492.0,2305.0,3280.0,157.99548022598864,22.605649717514122,3.7751412429378544,2.7175141242937846,97.74548022598869,75.42937853107343,19.230225988700557,19.38870056497175,1432.0,484.0,218.0,186.0,1245.0,965.0,462.0,580.0,9.0
718.0,441.0,181.0,131.0,553.0,523.0,266.0,422.0,11.966666666666667,7.35,3.0166666666666666,2.183333333333333,9.216666666666667,8.716666666666667,4.433333333333334,7.033333333333333,14.782872972914749,9.164242103596639,3.7260345319566395,2.7658633371878665,11.859595271340417,11.501449184052127,5.790797296861058,9.243015380996255,13112.0,5039.0,833.0,459.0,8439.0,7937.0,2012.0,5126.0,76.60903954802258,30.4686440677966,4.864124293785308,2.9319209039548015,56.64717514124293,57.257344632768344,14.114124293785315,36.575141242937846,1208.0,777.0,257.0,178.0,919.0,900.0,448.0,749.0,9.0
770.0,430.0,157.0,129.0,640.0,436.0,252.0,393.0,12.833333333333334,7.166666666666667,2.6166666666666667,2.15,10.666666666666666,7.266666666666667,4.2,6.55,15.700318468107582,9.248423289044103,3.304037933599835,2.6236107434856515,13.831124321616086,10.59087657687817,5.70087712549569,8.517628778010932,14790.0,5132.0,655.0,413.0,11478.0,6730.0,1950.0,4353.0,83.19209039548016,34.75141242937852,4.138700564971751,2.299152542372882,78.83615819209041,60.36836158192092,15.111864406779668,30.150000000000002,1268.0,685.0,241.0,183.0,1091.0,695.0,359.0,651.0,9.0
735.0,339.0,206.0,177.0,733.0,499.0,420.0,351.0,12.25,5.65,3.433333333333333,2.95,12.216666666666667,8.316666666666666,7.0,5.85,15.145406344279223,7.94669742723353,4.4234225060089685,3.6990989893936783,16.779451719290474,11.78204849195023,8.734987120768983,7.917280677943237,13763.0,3789.0,1174.0,821.0,16893.0,8329.0,4578.0,3761.0,80.66525423728814,31.756779661016935,7.910734463276836,5.065254237288134,134.54548022598868,70.83022598870058,27.76271186440678,28.94322033898304,1129.0,539.0,300.0,257.0,1184.0,748.0,689.0,552.0,9.0
904.0,562.0,177.0,173.0,699.0,479.0,468.0,461.0,15.066666666666666,9.366666666666667,2.95,2.8833333333333333,11.65,7.983333333333333,7.8,7.683333333333334,19.462785001124583,12.100964148915297,3.7793297465732376,3.561366778827103,15.428869044748549,11.450618615021053,10.808946911393974,9.752777382195632,22728.0,8786.0,857.0,761.0,14283.0,7867.0,7010.0,5707.0,154.36836158192094,59.69378531073448,5.675423728813559,4.443785310734462,104.06186440677969,68.52514124293783,56.9423728813559,36.694632768361586,1444.0,988.0,229.0,280.0,1158.0,803.0,693.0,762.0,9.0
975.0,608.0,177.0,150.0,707.0,374.0,388.0,322.0,16.25,10.133333333333333,2.95,2.5,11.783333333333333,6.233333333333333,6.466666666666667,5.366666666666666,20.728804435696077,12.492664514292644,3.6170890690351176,3.478505426185217,15.809807082946964,8.191458966508957,8.731170215574389,7.085195833567341,25781.0,9364.0,785.0,726.0,14997.0,4026.0,4574.0,3012.0,168.42796610169492,54.287005649717536,4.455084745762711,5.9491525423728815,112.98615819209041,28.72429378531073,34.99887005649717,21.761581920903954,1431.0,921.0,228.0,262.0,1206.0,578.0,667.0,529.0,9.0
937.0,369.0,217.0,196.0,791.0,360.0,546.0,361.0,15.616666666666667,6.15,3.6166666666666667,3.2666666666666666,13.183333333333334,6.0,9.1,6.016666666666667,18.778090069723987,8.18637078726994,4.762702314162972,4.219004621945797,17.55704986607944,7.861297602813418,12.271919165313957,7.566372975210778,21157.0,4021.0,1361.0,1068.0,18495.0,3708.0,9036.0,3435.0,110.57937853107347,29.688983050847458,9.765819209039549,7.24971751412429,136.72853107344636,26.23728813559322,68.93898305084745,21.406497175141244,1590.0,556.0,328.0,279.0,1243.0,548.0,902.0,581.0,9.0
1039.0,484.0,169.0,169.0,650.0,337.0,465.0,410.0,17.316666666666666,8.066666666666666,2.816666666666667,2.816666666666667,10.833333333333334,5.616666666666666,7.75,6.833333333333333,21.024192414137257,10.356962231594101,3.418089134784717,3.5425979167836705,13.435028842544403,7.421814692737439,10.07885575516057,8.771164878927618,26521.0,6436.0,701.0,753.0,10830.0,3305.0,6095.0,4616.0,144.55903954802255,42.910734463276825,3.813276836158192,4.69463276836158,64.20903954802262,23.935310734463283,42.22457627118644,30.751412429378526,1639.0,812.0,262.0,248.0,1055.0,564.0,715.0,626.0,9.0
733.0,456.0,141.0,148.0,590.0,333.0,441.0,393.0,12.216666666666667,7.6,2.35,2.466666666666667,9.833333333333334,5.55,7.35,6.55,15.949399152737175,9.439279633531363,2.958039891549808,2.9776948578836393,13.118688958886096,7.535471672916921,9.138745355171391,8.0301515137221,15263.0,5346.0,525.0,532.0,10326.0,3407.0,5011.0,3869.0,106.9183615819209,31.871186440677953,3.2822033898305096,2.829378531073445,76.68361581920902,26.42118644067797,29.994067796610167,21.94661016949153,1098.0,729.0,213.0,226.0,861.0,518.0,689.0,613.0,9.0
1220.0,688.0,214.0,165.0,733.0,502.0,543.0,362.0,20.333333333333332,11.466666666666667,3.566666666666667,2.75,12.216666666666667,8.366666666666667,9.05,6.033333333333333,27.76388541492947,14.133883637085267,4.600724580614087,3.3936214677931695,15.256146302392358,10.94988584415381,11.4564392373896,7.569676347110224,46250.0,11986.0,1270.0,691.0,13965.0,7194.0,7875.0,3438.0,363.44632768361555,69.43954802259886,8.588700564971752,4.021186440677966,84.91836158192088,50.74463276836159,50.183898305084746,21.253107344632763,1837.0,982.0,297.0,236.0,1251.0,813.0,856.0,541.0,9.0
1233.0,684.0,199.0,183.0,570.0,469.0,447.0,403.0,20.55,11.4,3.316666666666667,3.05,9.5,7.816666666666666,7.45,6.716666666666667,28.101304833287248,14.416425816870607,4.181307610465097,3.8751344062711772,12.00277745635012,10.331989159885913,9.358596760910972,9.535023160258536,47381.0,12470.0,1049.0,901.0,8644.0,6405.0,5255.0,5455.0,373.60762711864425,79.19322033898301,6.592937853107346,5.811016949152543,54.728813559322035,46.42344632768361,32.624576271186456,46.579378531073445,1979.0,1054.0,303.0,288.0,931.0,763.0,715.0,677.0,9.0
1193.0,547.0,206.0,191.0,697.0,583.0,471.0,382.0,19.883333333333333,9.116666666666667,3.433333333333333,3.183333333333333,11.616666666666667,9.716666666666667,7.85,6.366666666666666,24.336871888830192,11.501449184052127,4.498147766951785,3.9644251369734134,15.080340402877736,12.829003598617211,10.103629710818451,8.053984521134037,35537.0,7937.0,1214.0,943.0,13645.0,9875.0,6125.0,3892.0,200.27429378531065,50.00310734463276,8.588700564971752,5.677683615819208,94.0370056497175,71.35903954802262,41.14661016949152,24.74463276836159,1779.0,834.0,325.0,312.0,1130.0,993.0,742.0,591.0,9.0
1315.0,497.0,211.0,169.0,780.0,418.0,622.0,408.0,21.916666666666668,8.283333333333333,3.5166666666666666,2.816666666666667,13.0,6.966666666666667,10.366666666666667,6.8,29.93799147126162,10.923216864397899,4.379878232706171,3.8056974831603907,16.635303824497264,8.675636383958624,13.177000164427916,8.232051182218601,53777.0,7159.0,1151.0,869.0,16604.0,4516.0,10418.0,4066.0,422.99293785310726,51.56242937853111,6.931920903954801,6.660734463276833,109.55932203389831,27.185310734463265,67.28700564971754,21.891525423728815,2153.0,733.0,276.0,260.0,1343.0,664.0,1098.0,613.0,9.0
1116.0,560.0,228.0,163.0,659.0,371.0,353.0,402.0,18.6,9.333333333333334,3.8,2.716666666666667,10.983333333333333,6.183333333333334,5.883333333333334,6.7,22.87575135378071,11.264990013311152,4.919349550499537,3.461695153148719,13.636348484840067,8.454781684545932,7.172865536171719,8.927485648266257,31398.0,7614.0,1452.0,719.0,11157.0,4289.0,3087.0,4782.0,180.34576271186435,40.46327683615818,9.925423728813557,4.681073446327685,66.42344632768359,33.81327683615819,17.12175141242938,35.40000000000001,1803.0,883.0,337.0,249.0,1089.0,612.0,541.0,683.0,9.0
1365.0,488.0,222.0,174.0,532.0,403.0,519.0,389.0,22.75,8.133333333333333,3.7,2.9,8.866666666666667,6.716666666666667,8.65,6.483333333333333,31.289242027678885,10.135745326976863,4.661902329879224,3.665151201974256,11.593101396951552,8.976822006330154,12.05197079319395,8.04466697052567,58741.0,6164.0,1304.0,806.0,8064.0,4835.0,8715.0,3883.0,469.27542372881356,37.20225988700565,8.17966101694915,5.108474576271189,56.727683615819195,36.07090395480226,71.62118644067797,23.067514124293783,2270.0,693.0,291.0,237.0,881.0,630.0,838.0,636.0,9.0
1433.0,570.0,253.0,163.0,649.0,429.0,505.0,310.0,23.883333333333333,9.5,4.216666666666667,2.716666666666667,10.816666666666666,7.15,8.416666666666666,5.166666666666667,31.0174681967006,12.385475364312828,4.978286184354344,3.418089134784717,13.481468762712764,9.340770846134703,10.828203913853857,7.019021774198073,57725.0,9204.0,1487.0,701.0,10905.0,5235.0,7035.0,2956.0,398.3081920903956,64.22033898305085,7.121751412429376,4.375988700564973,65.84717514124293,36.73983050847457,47.196327683615834,22.954802259887,2248.0,861.0,376.0,240.0,1116.0,712.0,852.0,477.0,9.0
1791.0,567.0,224.0,162.0,619.0,538.0,576.0,519.0,29.85,9.45,3.7333333333333334,2.7,10.316666666666666,8.966666666666667,9.6,8.65,38.25157948808563,13.039043932231637,4.672615256292062,3.5449494589721118,13.525901079040908,12.624051119457125,12.808851106428971,10.999242398153308,87791.0,10201.0,1310.0,754.0,10977.0,9562.0,9844.0,7259.0,581.8584745762712,82.0822033898305,8.029378531073444,5.366101694915253,77.81327683615817,80.30395480225985,73.12542372881356,46.94322033898308,2957.0,974.0,289.0,237.0,1015.0,943.0,911.0,834.0,9.0
1382.0,490.0,201.0,156.0,606.0,476.0,448.0,427.0,23.033333333333335,8.166666666666666,3.35,2.6,10.1,7.933333333333334,7.466666666666667,7.116666666666666,28.39013913315678,9.83192080250175,4.153311931459037,3.3516165253998453,12.921558213569549,10.074720839804943,9.338094023943002,9.413642582266796,48360.0,5800.0,1035.0,674.0,10018.0,6090.0,5232.0,5317.0,280.13446327683613,30.48022598870056,6.129661016949153,4.549152542372882,66.05762711864409,39.21581920903953,31.981920903954798,38.61327683615819,2289.0,728.0,273.0,258.0,1037.0,762.0,673.0,630.0,9.0
754.0,497.0,255.0,166.0,183.0,340.0,253.0,322.0,12.566666666666666,8.283333333333333,4.25,2.7666666666666666,3.05,5.666666666666667,4.216666666666667,5.366666666666666,16.47725705328408,10.370631610466162,5.264662065761359,3.2145502536643185,3.905124837953327,7.720103626247513,5.349454800880802,6.735478206235001,16290.0,6453.0,1663.0,620.0,915.0,3576.0,1717.0,2722.0,115.50395480225993,39.59632768361581,9.817796610169491,2.7242937853107327,6.048305084745763,27.954802259886996,11.020056497175142,16.84632768361582,1130.0,811.0,367.0,232.0,320.0,562.0,389.0,465.0,10.0
644.0,512.0,199.0,141.0,536.0,287.0,204.0,381.0,10.733333333333333,8.533333333333333,3.316666666666667,2.35,8.933333333333334,4.783333333333333,3.4,6.35,14.670832741645354,11.250185183661053,4.6169975814014315,2.9916550603303182,13.377842377105011,7.0557305315136105,4.1952353926806065,8.488227141164401,12914.0,7594.0,1279.0,537.0,10738.0,2987.0,1056.0,4323.0,101.72429378531069,54.65988700564972,10.491242937853112,3.4855932203389846,100.84293785310734,27.359039548022597,6.142372881355931,32.265254237288126,968.0,860.0,320.0,204.0,892.0,502.0,308.0,575.0,10.0
1017.0,506.0,193.0,130.0,318.0,202.0,216.0,480.0,16.95,8.433333333333334,3.216666666666667,2.1666666666666665,5.3,3.3666666666666667,3.6,8.0,20.870633275809656,10.644247272588137,3.9560080889704965,2.594866727470475,7.234178138070235,4.611579628139003,4.468407620916725,9.628083921528727,26135.0,6798.0,939.0,404.0,3140.0,1276.0,1198.0,5562.0,150.79406779661016,42.89378531073446,5.3929378531073455,2.073446327683616,24.65423728813559,10.100564971751416,7.125423728813559,29.1864406779661,1560.0,816.0,290.0,183.0,534.0,298.0,317.0,787.0,10.0
822.0,469.0,203.0,108.0,106.0,336.0,247.0,351.0,13.7,7.816666666666666,3.3833333333333333,1.8,1.7666666666666666,5.6,4.116666666666666,5.85,16.923356641044943,9.95071186733224,4.402650716708439,2.280350850198276,2.3874672772626644,7.3530039213009175,5.264662065761359,7.8027772833352955,17184.0,5941.0,1163.0,312.0,342.0,3244.0,1663.0,3653.0,100.38305084745758,38.5590395480226,8.070903954802265,1.9932203389830514,2.6225988700564966,23.09152542372881,10.952259887005654,27.112711864406776,1309.0,655.0,298.0,151.0,161.0,602.0,388.0,582.0,10.0
714.0,532.0,209.0,125.0,125.0,266.0,185.0,432.0,11.9,8.866666666666667,3.4833333333333334,2.0833333333333335,2.0833333333333335,4.433333333333334,3.0833333333333335,7.2,15.505912850694516,10.836666154003884,4.383681861935999,2.591653268990022,2.7416540019970914,6.263651757029068,4.043513323831146,9.366607354497857,14426.0,7046.0,1153.0,403.0,451.0,2354.0,981.0,5264.0,100.49830508474578,39.473446327683604,7.203107344632762,2.416666666666666,3.2302259887005653,19.91073446327683,6.959039548022599,36.501694915254234,1147.0,880.0,307.0,174.0,170.0,447.0,270.0,714.0,10.0
675.0,389.0,189.0,114.0,125.0,273.0,203.0,434.0,11.25,6.483333333333333,3.15,1.9,2.0833333333333335,4.55,3.3833333333333333,7.233333333333333,14.226149631342043,8.165986366222597,3.8622100754188224,2.4698178070456938,2.6551836094703507,6.579007017273453,4.157322856518764,8.933084573650918,12143.0,4001.0,895.0,366.0,423.0,2597.0,1037.0,4788.0,77.10593220338983,25.067514124293787,5.078813559322035,2.532203389830509,2.755649717514126,22.9635593220339,5.935310734463277,27.94463276836157,1017.0,573.0,280.0,174.0,209.0,422.0,315.0,764.0,10.0
839.0,555.0,191.0,123.0,178.0,227.0,159.0,329.0,13.983333333333333,9.25,3.183333333333333,2.05,2.966666666666667,3.783333333333333,2.65,5.483333333333333,18.26061335223984,11.98818863159346,3.7925365302569376,2.642599730063812,3.82099463490856,6.081392384424256,3.547299442298794,7.119222804023859,20007.0,8623.0,863.0,419.0,876.0,2219.0,755.0,3041.0,140.25395480225984,59.139830508474574,4.3217514124293785,2.8279661016949147,5.89717514124294,23.05395480225989,5.655084745762713,20.965819209039545,1466.0,918.0,267.0,169.0,271.0,404.0,245.0,537.0,10.0
754.0,551.0,146.0,129.0,161.0,227.0,205.0,331.0,12.566666666666666,9.183333333333334,2.433333333333333,2.15,2.683333333333333,3.783333333333333,3.4166666666666665,5.516666666666667,16.453976216505644,11.463710859345095,3.260879227038826,2.7416540019970914,3.5893360574531514,6.435578192102607,4.807979478602905,7.251436639269031,16244.0,7885.0,638.0,451.0,773.0,2485.0,1387.0,3155.0,114.72429378531075,47.88107344632769,4.792090395480228,2.9432203389830516,5.779378531073448,27.562429378531068,11.63700564971752,22.525141242937856,1259.0,912.0,236.0,203.0,276.0,415.0,326.0,524.0,10.0
858.0,567.0,150.0,128.0,189.0,180.0,225.0,400.0,14.3,9.45,2.5,2.1333333333333333,3.15,3.0,3.75,6.666666666666667,18.211717839530316,11.547727049077666,3.24037034920393,2.9268868558020253,3.9812058474788765,5.0990195135927845,4.67796251944512,8.414273587185052,19900.0,8001.0,630.0,514.0,951.0,1560.0,1313.0,4248.0,129.33220338983048,44.79406779661015,4.322033898305085,4.083615819209039,6.027966101694916,17.28813559322034,7.953389830508475,26.802259887005636,1353.0,885.0,234.0,220.0,312.0,293.0,357.0,670.0,10.0
828.0,575.0,188.0,110.0,191.0,254.0,217.0,390.0,13.8,9.583333333333334,3.1333333333333333,1.8333333333333333,3.183333333333333,4.233333333333333,3.6166666666666667,6.5,17.02351315093333,12.620750109772926,4.127145906474999,2.3804761428476167,4.129164564412516,6.728050733062784,4.451591475715922,8.368592075930893,17388.0,9557.0,1022.0,340.0,1023.0,2716.0,1189.0,4202.0,101.04406779661015,68.58615819209041,7.337853107344632,2.344632768361582,7.033615819209038,27.809039548022596,6.850564971751409,28.25423728813559,1333.0,911.0,312.0,170.0,310.0,432.0,326.0,665.0,10.0
768.0,444.0,163.0,96.0,172.0,262.0,205.0,441.0,12.8,7.4,2.716666666666667,1.6,2.8666666666666667,4.366666666666666,3.4166666666666665,7.35,15.97811002590732,9.463966751139115,3.556683848755748,2.1134489978863145,3.7461090925563463,6.231639698613306,4.944694126030447,10.057335631269348,15318.0,5374.0,759.0,268.0,842.0,2330.0,1467.0,6069.0,93.01016949152543,35.396610169491524,5.359039548022601,1.9389830508474575,5.914124293785308,20.100564971751407,12.992937853107348,47.92627118644068,1283.0,724.0,261.0,143.0,273.0,456.0,316.0,736.0,10.0
845.0,505.0,181.0,95.0,140.0,276.0,261.0,383.0,14.083333333333334,8.416666666666666,3.0166666666666666,1.5833333333333333,2.3333333333333335,4.6,4.35,6.383333333333334,18.104787580453227,10.680979980008077,3.905124837953327,2.2985502677412417,2.943920288775949,6.889605697474034,5.346338310781813,8.023922565262787,19667.0,6845.0,915.0,317.0,520.0,2848.0,1715.0,3863.0,131.63700564971745,43.97598870056498,6.253954802259887,2.8234463276836164,3.2768361581920904,26.752542372881344,9.82457627118644,24.037005649717514,1299.0,733.0,263.0,142.0,203.0,486.0,391.0,604.0,10.0
821.0,491.0,264.0,129.0,241.0,309.0,336.0,362.0,13.683333333333334,8.183333333333334,4.4,2.15,4.016666666666667,5.15,5.6,6.033333333333333,17.03183294109396,10.61681056940674,5.468089245796926,2.795830228512931,5.031567018997825,7.272092775352452,6.865372046242894,7.60920495189872,17405.0,6763.0,1794.0,469.0,1519.0,3173.0,2828.0,3474.0,104.59293785310734,46.52514124293784,10.718644067796605,3.2483050847457613,9.338700564971754,26.807627118644067,16.040677966101697,21.863276836158185,1277.0,736.0,325.0,156.0,407.0,489.0,506.0,560.0,10.0
732.0,510.0,215.0,120.0,209.0,228.0,258.0,415.0,12.2,8.5,3.5833333333333335,2.0,3.4833333333333334,3.8,4.3,6.916666666666667,15.664184200483174,10.132456102380443,4.3531597719357835,2.496664441476534,5.077729151238113,5.431390245600108,5.202563470700445,9.205976319760984,14722.0,6160.0,1137.0,374.0,1547.0,1770.0,1624.0,5085.0,98.16271186440679,30.93220338983051,6.213276836158192,2.2711864406779663,13.881073446327674,15.31525423728814,8.722033898305085,37.53531073446327,1101.0,798.0,304.0,181.0,362.0,362.0,416.0,717.0,10.0
741.0,495.0,232.0,124.0,241.0,346.0,290.0,380.0,12.35,8.25,3.8666666666666667,2.066666666666667,4.016666666666667,5.766666666666667,4.833333333333333,6.333333333333333,15.10132444522665,10.607387362902642,4.857983120596447,2.503331114069145,5.071160288007732,8.181279443542637,6.752777206453653,8.270429251254134,13683.0,6751.0,1416.0,376.0,1543.0,4016.0,2736.0,4104.0,76.80762711864408,45.20762711864407,8.7954802259887,2.0293785310734473,9.745480225988704,34.24971751412429,22.61581920903955,28.7683615819209,1141.0,755.0,369.0,174.0,366.0,521.0,461.0,635.0,10.0
1045.0,551.0,276.0,127.0,188.0,308.0,352.0,449.0,17.416666666666668,9.183333333333334,4.6,2.1166666666666667,3.1333333333333333,5.133333333333334,5.866666666666666,7.483333333333333,23.199497120986624,12.369990568576302,5.732945723331651,2.711088342345192,4.0783983784487425,6.76510655249913,7.6963194666888235,10.040750303969652,32293.0,9181.0,1972.0,441.0,998.0,2746.0,3554.0,6049.0,238.85734463276833,69.84717514124293,11.905084745762709,2.9183615819209043,6.931073446327682,19.744632768361587,25.236158192090397,45.57598870056496,1769.0,868.0,414.0,181.0,318.0,518.0,548.0,677.0,10.0
1223.0,606.0,210.0,123.0,183.0,290.0,344.0,449.0,20.383333333333333,10.1,3.5,2.05,3.05,4.833333333333333,5.733333333333333,7.483333333333333,25.74263648761201,13.778001790293589,4.366539438350084,2.4933244206614322,3.909390404312843,7.14142842854285,7.014271166700073,9.920517459622086,39761.0,11390.0,1144.0,373.0,917.0,3060.0,2952.0,5905.0,251.39293785310733,89.31186440677969,6.932203389830509,2.048305084745764,6.082203389830507,28.107344632768356,16.605649717514122,43.13531073446327,1889.0,1006.0,304.0,158.0,285.0,515.0,582.0,777.0,10.0
940.0,696.0,234.0,115.0,241.0,323.0,280.0,433.0,15.666666666666666,11.6,3.9,1.9166666666666667,4.016666666666667,5.383333333333334,4.666666666666667,7.216666666666667,19.47990417498676,14.441837371562757,4.9023803741991845,2.3909551787239063,5.948389137685373,7.435276278211411,6.295501039101918,9.945685831890462,22768.0,12514.0,1442.0,343.0,2123.0,3317.0,2378.0,5935.0,136.29378531073445,75.26101694915253,8.9728813559322,2.077683615819209,19.57598870056499,26.74887005649717,18.158192090395485,47.630225988700566,1474.0,1170.0,380.0,151.0,402.0,572.0,440.0,716.0,10.0
486.0,238.0,197.0,103.0,196.0,76.0,68.0,103.0,8.1,3.966666666666667,3.283333333333333,1.7166666666666666,3.2666666666666666,1.2666666666666666,1.1333333333333333,1.7166666666666666,11.3754120804479,5.221749387577564,4.466542286825459,2.217355782608345,4.250490167812021,1.5811388300841898,1.5275252316519468,2.526525941551627,7764.0,1636.0,1197.0,295.0,1084.0,150.0,140.0,383.0,64.87118644067796,11.727683615819219,9.325141242937857,2.0031073446327694,7.520903954802262,0.910734463276836,1.0666666666666675,3.4946327683615857,811.0,339.0,310.0,135.0,329.0,110.0,97.0,156.0,1.0
570.0,288.0,180.0,110.0,180.0,67.0,65.0,105.0,9.5,4.8,3.0,1.8333333333333333,3.0,1.1166666666666667,1.0833333333333333,1.75,12.897028081435403,5.974947698515862,3.6514837167011076,2.3380903889000244,4.119061381755152,1.396424004376894,1.5110702608857516,2.2098265391956295,9980.0,2142.0,800.0,328.0,1018.0,117.0,137.0,293.0,77.37288135593221,12.874576271186442,4.406779661016949,2.141242937853107,8.101694915254237,0.7149717514124291,1.128531073446328,1.8516949152542372,949.0,469.0,249.0,141.0,302.0,92.0,101.0,158.0,1.0
443.0,207.0,202.0,108.0,156.0,54.0,60.0,94.0,7.383333333333334,3.45,3.3666666666666667,1.8,2.6,0.9,1.0,1.5666666666666667,9.7082439194738,4.459073147340525,3.945461527713414,2.280350850198276,3.8384024454626084,1.2649110640673518,1.2649110640673518,1.9407902170679516,5655.0,1193.0,934.0,312.0,884.0,96.0,96.0,226.0,40.40988700564972,8.116101694915251,4.303954802259889,1.993220338983051,8.10847457627119,0.8033898305084747,0.6101694915254238,1.3344632768361575,717.0,328.0,295.0,155.0,269.0,76.0,78.0,143.0,1.0
457.0,252.0,282.0,118.0,355.0,96.0,75.0,86.0,7.616666666666666,4.2,4.7,1.9666666666666666,5.916666666666667,1.6,1.25,1.4333333333333333,9.735673234724619,5.202563470700445,5.986094998689324,2.4698178070456938,8.4666010496145,2.065591117977289,1.6683325008322931,1.9916492328386208,5687.0,1624.0,2150.0,366.0,4301.0,256.0,167.0,238.0,37.392937853107355,9.586440677966102,13.976271186440677,2.27005649717514,37.29802259887006,1.7355932203389823,1.2415254237288136,1.9446327683615825,632.0,363.0,382.0,157.0,587.0,148.0,100.0,134.0,1.0
464.0,248.0,219.0,107.0,242.0,77.0,58.0,82.0,7.733333333333333,4.133333333333334,3.65,1.7833333333333334,4.033333333333333,1.2833333333333334,0.9666666666666667,1.3666666666666667,9.284395510748128,5.092478113191389,4.716990566028302,2.3202011407059806,5.422176684690384,1.6380883167074152,1.35400640077266,1.7795130420052185,5172.0,1556.0,1335.0,323.0,1764.0,161.0,110.0,190.0,26.84293785310734,8.998870056497179,9.078813559322034,2.240395480225989,13.354802259887007,1.0539548022598868,0.9141242937853107,1.3209039548022599,600.0,375.0,303.0,135.0,390.0,104.0,79.0,110.0,1.0
391.0,167.0,228.0,104.0,279.0,82.0,62.0,96.0,6.516666666666667,2.783333333333333,3.8,1.7333333333333334,4.65,1.3666666666666667,1.0333333333333334,1.6,9.448985836233078,3.5,4.774934554525329,2.183269719175042,5.993051532121734,1.7320508075688772,1.35400640077266,1.888562063228706,5357.0,735.0,1368.0,286.0,2155.0,180.0,110.0,214.0,47.60988700564974,4.579378531073447,8.501694915254237,1.792090395480225,14.536440677966102,1.151412429378531,0.7785310734463271,1.0237288135593214,588.0,236.0,349.0,140.0,425.0,118.0,80.0,120.0,1.0
496.0,212.0,223.0,113.0,132.0,55.0,64.0,78.0,8.266666666666667,3.533333333333333,3.716666666666667,1.8833333333333333,2.2,0.9166666666666666,1.0666666666666667,1.3,10.871982339941507,4.61519230368573,4.863126566315131,2.4324199198877374,2.886751345948129,1.2179217270963407,1.4259499757471625,1.906130460732773,7092.0,1278.0,1419.0,355.0,500.0,89.0,122.0,218.0,50.70734463276837,8.964971751412422,10.003107344632772,2.4098870056497197,3.552542372881356,0.6539548022598868,0.9107344632768366,1.976271186440678,766.0,333.0,320.0,160.0,198.0,72.0,91.0,125.0,1.0
352.0,215.0,248.0,126.0,123.0,59.0,61.0,89.0,5.866666666666666,3.5833333333333335,4.133333333333334,2.1,2.05,0.9833333333333333,1.0166666666666666,1.4833333333333334,7.362064927722384,4.51848057057532,5.144576432192126,2.588435821108957,2.539685019840059,1.2041594578792296,1.2974333637352375,1.9017535767461216,3252.0,1225.0,1588.0,402.0,387.0,87.0,101.0,217.0,20.117514124293788,7.704802259887003,9.541242937853108,2.3288135593220334,2.2855932203389835,0.4912429378531073,0.6607344632768356,1.440395480225989,499.0,311.0,358.0,163.0,183.0,77.0,66.0,122.0,1.0
352.0,180.0,248.0,107.0,101.0,60.0,57.0,81.0,5.866666666666666,3.0,4.133333333333334,1.7833333333333334,1.6833333333333333,1.0,0.95,1.35,7.604823031033223,3.665151201974256,5.579725202313581,2.3345235059857505,2.3202011407059806,1.3662601021279464,1.2179217270963407,1.6980380835933373,3470.0,806.0,1868.0,327.0,323.0,112.0,89.0,173.0,23.812429378531064,4.508474576271187,14.287005649717518,2.30819209039548,2.592937853107345,0.8813559322033898,0.5906779661016951,1.078813559322034,488.0,256.0,351.0,145.0,169.0,92.0,74.0,96.0,1.0
477.0,248.0,251.0,114.0,255.0,66.0,82.0,84.0,7.95,4.133333333333334,4.183333333333334,1.9,4.25,1.1,1.3666666666666667,1.4,11.31149857445953,5.266244708835067,5.283622494715786,2.3664319132398464,5.714017850864661,1.4719601443879744,1.879716290649558,1.879716290649558,7677.0,1664.0,1675.0,336.0,1959.0,130.0,212.0,212.0,65.84491525423726,10.829378531073448,10.59293785310734,2.023728813559323,14.834745762711865,0.9728813559322037,1.693785310734462,1.5999999999999983,771.0,412.0,402.0,164.0,454.0,90.0,113.0,118.0,1.0
417.0,239.0,218.0,117.0,274.0,72.0,58.0,96.0,6.95,3.9833333333333334,3.6333333333333333,1.95,4.566666666666666,1.2,0.9666666666666667,1.6,8.468569340016451,5.255156198122627,4.929503017546495,2.506657801402763,6.2048368229954285,1.51657508881031,1.2649110640673518,1.9235384061671346,4303.0,1657.0,1458.0,377.0,2310.0,138.0,96.0,222.0,23.81101694915255,11.94887005649718,11.287005649717523,2.522881355932204,17.944632768361586,0.8745762711864404,0.6768361581920902,1.1593220338983048,593.0,383.0,348.0,166.0,488.0,101.0,72.0,132.0,1.0
442.0,249.0,194.0,102.0,190.0,59.0,71.0,89.0,7.366666666666666,4.15,3.2333333333333334,1.7,3.1666666666666665,0.9833333333333333,1.1833333333333333,1.4833333333333334,10.02330617444497,5.280467151051442,4.2895221179054435,2.37346441585572,4.494441010848846,1.2974333637352375,1.4548768561863463,1.857417562100671,6028.0,1673.0,1104.0,338.0,1212.0,101.0,127.0,207.0,46.98192090395481,10.841525423728811,8.080225988700564,2.789830508474576,10.344632768361583,0.7285310734463271,0.7285310734463277,1.27090395480226,655.0,368.0,260.0,141.0,309.0,75.0,80.0,118.0,1.0
503.0,235.0,181.0,98.0,318.0,65.0,64.0,89.0,8.383333333333333,3.9166666666666665,3.0166666666666666,1.6333333333333333,5.3,1.0833333333333333,1.0666666666666667,1.4833333333333334,11.414172476939944,5.267826876426369,4.236744032862972,2.3021728866442674,6.843488389215937,1.4317821063276353,1.449137674618944,2.0453198608856593,7817.0,1665.0,1077.0,318.0,2810.0,123.0,126.0,251.0,61.02005649717515,12.620056497175145,8.999717514124296,2.6768361581920885,19.061016949152545,0.8912429378531072,0.9785310734463282,2.0166666666666675,840.0,340.0,264.0,152.0,509.0,105.0,91.0,150.0,1.0
422.0,259.0,204.0,87.0,196.0,59.0,73.0,81.0,7.033333333333333,4.316666666666666,3.4,1.45,3.2666666666666666,0.9833333333333333,1.2166666666666666,1.35,9.183318209303941,5.62879501610543,4.131182235954578,1.9017535767461216,4.2387104957364885,1.2041594578792296,1.4776106839534333,1.7654083569153813,5060.0,1901.0,1024.0,217.0,1078.0,87.0,131.0,187.0,35.45649717514124,13.270903954802266,5.599999999999999,1.5398305084745767,7.419209039548025,0.4912429378531071,0.7149717514124296,1.3161016949152542,655.0,410.0,305.0,127.0,326.0,63.0,89.0,114.0,1.0
495.0,155.0,207.0,102.0,176.0,53.0,65.0,99.0,8.25,2.5833333333333335,3.45,1.7,2.933333333333333,0.8833333333333333,1.0833333333333333,1.65,10.378664011647485,3.2067636852960235,4.503702180798963,2.228601953392904,3.855731664245668,1.2315302134607444,1.347837774610382,2.085665361461421,6463.0,617.0,1217.0,298.0,892.0,91.0,109.0,261.0,40.32627118644068,3.6709039548022626,8.522881355932205,2.1118644067796604,6.368361581920902,0.7488700564971746,0.6539548022598867,1.6550847457627118,737.0,226.0,300.0,147.0,282.0,72.0,76.0,153.0,1.0
457.0,223.0,175.0,103.0,149.0,61.0,65.0,86.0,7.616666666666666,3.716666666666667,2.9166666666666665,1.7166666666666666,2.4833333333333334,1.0166666666666666,1.0833333333333333,1.4333333333333333,10.020811677038276,4.934571916590131,3.7080992435478315,2.1563858652847827,3.8056974831603907,1.4433756729740645,1.4433756729740645,2.0330600909302543,6025.0,1461.0,825.0,279.0,869.0,125.0,125.0,248.0,43.12175141242939,10.714971751412428,5.331920903954801,1.7319209039548031,8.457344632768352,1.0675141242937853,0.9251412429378534,2.114124293785311,709.0,340.0,246.0,123.0,242.0,76.0,106.0,125.0,1.0
454.0,202.0,197.0,101.0,139.0,56.0,62.0,95.0,7.566666666666666,3.3666666666666667,3.283333333333333,1.6833333333333333,2.316666666666667,0.9333333333333333,1.0333333333333334,1.5833333333333333,10.313421675984486,4.215052391924289,3.9770173078158293,2.140872096444188,3.2015621187164243,1.2780193008453875,1.3291601358251257,1.9536291016123473,6382.0,1066.0,949.0,275.0,615.0,98.0,106.0,229.0,49.94463276836158,6.5412429378531085,5.12175141242938,1.7793785310734462,4.965819209039548,0.7751412429378535,0.710734463276836,1.3319209039548023,701.0,364.0,306.0,146.0,216.0,71.0,84.0,135.0,1.0
350.0,238.0,213.0,102.0,127.0,61.0,64.0,74.0,5.833333333333333,3.966666666666667,3.55,1.7,2.1166666666666667,1.0166666666666666,1.0666666666666667,1.2333333333333334,8.414273587185052,5.259911279353167,4.727578661429125,2.3804761428476167,2.8431203515386634,1.2974333637352375,1.3662601021279464,1.632993161855452,4248.0,1660.0,1341.0,340.0,485.0,101.0,112.0,160.0,37.39548022598871,12.134463276836161,9.91271186440678,2.8237288135593204,3.664124293785311,0.6607344632768362,0.7412429378531078,1.164971751412429,574.0,348.0,291.0,138.0,198.0,77.0,65.0,104.0,1.0
422.0,317.0,192.0,133.0,150.0,60.0,116.0,98.0,7.033333333333333,5.283333333333333,3.2,2.216666666666667,2.5,1.0,1.9333333333333333,1.6333333333333333,9.035116675136704,6.525590650150631,4.012480529547776,2.8548204847240397,3.415650255319866,1.3416407864998738,2.6832815729997477,2.1213203435596424,4898.0,2555.0,966.0,489.0,700.0,108.0,432.0,270.0,32.71073446327684,14.918361581920902,5.959322033898304,3.2912429378531094,5.508474576271187,0.8135593220338984,3.5209039548022574,1.86327683615819,662.0,476.0,278.0,201.0,252.0,89.0,197.0,139.0,2.0
371.0,415.0,177.0,115.0,144.0,79.0,86.0,109.0,6.183333333333334,6.916666666666667,2.95,1.9166666666666667,2.4,1.3166666666666667,1.4333333333333333,1.8166666666666667,7.894090616826404,8.735941086492437,3.774917217635375,2.4460853078609777,3.3516165253998453,1.8303005217723127,2.008316044185609,2.247220505424423,3739.0,4579.0,855.0,359.0,674.0,201.0,242.0,303.0,24.4912429378531,28.959039548022584,5.641525423728814,2.348870056497175,5.566101694915254,1.6437853107344638,2.0124293785310736,1.7793785310734462,531.0,666.0,303.0,185.0,211.0,113.0,134.0,164.0,2.0
341.0,378.0,180.0,88.0,76.0,63.0,84.0,109.0,5.683333333333334,6.3,3.0,1.4666666666666666,1.2666666666666666,1.05,1.4,1.8166666666666667,7.96345821026686,8.136338242723197,3.8686776379877745,2.1213203435596424,1.8529256146249728,1.3601470508735443,1.9493588689617927,2.187083293643233,3805.0,3972.0,898.0,270.0,206.0,111.0,228.0,287.0,31.643785310734472,26.959322033898303,6.067796610169491,2.388700564971751,1.8598870056497165,0.7601694915254235,1.8711864406779646,1.50819209039548,518.0,630.0,287.0,147.0,120.0,79.0,128.0,149.0,2.0
292.0,419.0,185.0,98.0,81.0,48.0,81.0,98.0,4.866666666666666,6.983333333333333,3.0833333333333335,1.6333333333333333,1.35,0.8,1.35,1.6333333333333333,7.264066813202276,9.338986383257375,3.9770173078158293,2.073644135332772,1.6980380835933373,1.0,1.6881943016134133,2.0976176963403033,3166.0,5233.0,949.0,258.0,173.0,60.0,171.0,264.0,29.575141242937853,39.10141242937854,6.416666666666666,1.659887005649716,1.078813559322034,0.366101694915254,1.0449152542372884,1.7615819209039525,473.0,652.0,264.0,147.0,115.0,50.0,113.0,147.0,2.0
305.0,411.0,195.0,96.0,66.0,43.0,88.0,93.0,5.083333333333333,6.85,3.25,1.6,1.1,0.7166666666666667,1.4666666666666666,1.55,6.766338251472012,9.149681233063077,4.084523636035582,2.0896570691543306,1.4023789311975086,0.9746794344808963,2.008316044185609,1.9017535767461216,2747.0,5023.0,1001.0,262.0,118.0,57.0,242.0,217.0,20.281073446327692,37.417796610169496,6.22457627118644,1.8372881355932198,0.7694915254237288,0.44378531073446287,1.9141242937853116,1.2347457627118643,496.0,691.0,303.0,139.0,87.0,57.0,150.0,143.0,2.0
300.0,387.0,150.0,93.0,62.0,55.0,82.0,98.0,5.0,6.45,2.5,1.55,1.0333333333333334,0.9166666666666666,1.3666666666666667,1.6333333333333333,6.821534529219458,8.80056816347672,3.0386400466875525,1.9192012227313042,1.2780193008453875,1.3102162671355697,1.9578900207451218,2.057506581601462,2792.0,4647.0,554.0,221.0,98.0,103.0,230.0,254.0,21.89830508474576,36.455084745762726,3.0338983050847457,1.302542372881356,0.575141242937853,0.8912429378531074,1.9988700564971738,1.5920903954802248,509.0,666.0,212.0,141.0,79.0,76.0,116.0,134.0,2.0
269.0,331.0,148.0,93.0,130.0,65.0,79.0,100.0,4.483333333333333,5.516666666666667,2.466666666666667,1.55,2.1666666666666665,1.0833333333333333,1.3166666666666667,1.6666666666666667,5.883593006545122,7.10516244243109,3.082207001484488,1.9874606914351791,2.932575659723036,1.408308678285174,1.9790570145063195,2.1525179054617256,2077.0,3029.0,570.0,237.0,516.0,119.0,235.0,278.0,14.762429378531078,20.38954802259887,3.4734463276836145,1.5737288135593213,3.971751412429382,0.8234463276836157,2.2200564971751433,1.8870056497175134,410.0,511.0,228.0,130.0,186.0,86.0,133.0,139.0,2.0
291.0,366.0,175.0,105.0,115.0,58.0,78.0,100.0,4.85,6.1,2.9166666666666665,1.75,1.9166666666666667,0.9666666666666667,1.3,1.6666666666666667,6.394007611297733,8.658329323066123,4.260281680828158,2.1486429825977758,2.565800719723442,1.378404875209022,1.9578900207451218,2.1756225162774294,2453.0,4498.0,1089.0,277.0,395.0,114.0,230.0,284.0,17.65508474576271,38.39661016949152,9.806497175141244,1.5805084745762712,2.9590395480225995,0.9819209039548017,2.1796610169491526,1.9887005649717504,428.0,617.0,286.0,155.0,159.0,77.0,124.0,146.0,2.0
331.0,263.0,204.0,112.0,75.0,59.0,71.0,97.0,5.516666666666667,4.383333333333334,3.4,1.8666666666666667,1.25,0.9833333333333333,1.1833333333333333,1.6166666666666667,7.151922818375489,5.894913061275798,4.230839160261236,2.32379000772445,1.6072751268321592,1.2583057392117916,1.6683325008322931,2.140872096444188,3069.0,2085.0,1074.0,324.0,155.0,95.0,167.0,275.0,21.067514124293794,15.799717514124291,6.447457627118642,1.948022598870058,1.0381355932203389,0.62683615819209,1.4064971751412432,2.003107344632768,508.0,415.0,308.0,158.0,114.0,76.0,98.0,146.0,2.0
379.0,427.0,182.0,104.0,140.0,58.0,102.0,136.0,6.316666666666666,7.116666666666666,3.033333333333333,1.7333333333333334,2.3333333333333335,0.9666666666666667,1.7,2.2666666666666666,8.486263410162724,9.301433581264055,3.9285281382896233,2.250925735484551,3.125166662222459,1.2516655570345725,2.160246899469287,3.0386400466875525,4321.0,5191.0,926.0,304.0,586.0,94.0,280.0,554.0,32.66073446327683,36.477683615819195,6.337853107344635,2.097175141242937,4.395480225988699,0.6429378531073444,1.8067796610169486,4.164971751412431,604.0,706.0,274.0,157.0,222.0,64.0,157.0,233.0,2.0
418.0,341.0,221.0,125.0,138.0,63.0,98.0,124.0,6.966666666666667,5.683333333333334,3.683333333333333,2.0833333333333335,2.3,1.05,1.6333333333333333,2.066666666666667,8.594571930391103,7.455423082115014,4.440345331915826,2.591653268990022,3.0605010483034745,1.5329709716755893,2.1525179054617256,2.972092416687835,4432.0,3335.0,1183.0,403.0,562.0,141.0,278.0,530.0,25.761581920903946,23.677683615819213,6.253954802259887,2.4166666666666674,4.145762711864407,1.2686440677966098,1.9988700564971715,4.639548022598869,674.0,582.0,340.0,174.0,213.0,87.0,152.0,201.0,2.0
411.0,382.0,195.0,126.0,144.0,81.0,104.0,174.0,6.85,6.366666666666666,3.25,2.1,2.4,1.35,1.7333333333333334,2.9,8.533268228918311,8.272444217601793,4.064070209367287,2.780887148615228,3.2761766334148303,1.6072751268321592,2.3804761428476167,4.066120181860509,4369.0,4106.0,991.0,464.0,644.0,155.0,340.0,992.0,26.333050847457617,28.37175141242938,6.055084745762712,3.379661016949152,5.057627118644068,0.7737288135593217,2.707344632768364,8.261016949152545,627.0,605.0,285.0,202.0,228.0,107.0,164.0,294.0,2.0
293.0,276.0,142.0,99.0,163.0,63.0,106.0,268.0,4.883333333333334,4.6,2.3666666666666667,1.65,2.716666666666667,1.05,1.7666666666666666,4.466666666666667,6.034622330077224,6.191391873668904,3.125166662222459,2.053452377501525,3.3391615714128,1.3228756555322954,2.1447610589527217,5.916079783099616,2185.0,2300.0,586.0,253.0,669.0,105.0,276.0,2100.0,12.782768361581917,17.46440677966102,4.236158192090397,1.519491525423729,3.8336158192090415,0.6584745762711867,1.5039548022598863,15.303954802259886,509.0,426.0,209.0,129.0,261.0,79.0,158.0,459.0,2.0
319.0,257.0,147.0,115.0,144.0,58.0,80.0,240.0,5.316666666666666,4.283333333333333,2.45,1.9166666666666667,2.4,0.9666666666666667,1.3333333333333333,4.0,6.5434445567045705,5.270989786874315,3.13315602335196,2.4866309202077685,2.9776948578836393,1.2780193008453875,1.70293863659264,5.205766033928148,2569.0,1667.0,589.0,371.0,532.0,98.0,174.0,1626.0,14.796327683615823,9.59632768361582,3.8788135593220323,2.552259887005649,3.1593220338983072,0.7107344632768359,1.1412429378531075,11.288135593220339,522.0,426.0,223.0,160.0,204.0,75.0,125.0,406.0,2.0
301.0,209.0,174.0,96.0,170.0,60.0,71.0,201.0,5.016666666666667,3.4833333333333334,2.9,1.6,2.8333333333333335,1.0,1.1833333333333333,3.35,6.1332427529543185,4.522167621838006,3.669695718539436,2.160246899469287,3.6193922141707713,1.3416407864998738,1.7368553960150703,4.5478932851742835,2257.0,1227.0,808.0,280.0,786.0,108.0,181.0,1241.0,12.660734463276837,8.457344632768361,5.142372881355935,2.1423728813559317,5.158192090395481,0.8135593220338984,1.6437853107344627,9.621186440677965,480.0,333.0,274.0,152.0,257.0,80.0,105.0,345.0,2.0
395.0,277.0,195.0,109.0,135.0,57.0,80.0,232.0,6.583333333333333,4.616666666666666,3.25,1.8166666666666667,2.25,0.95,1.3333333333333333,3.8666666666666667,8.470537173048708,6.3021160467470505,4.279797502997854,2.3130067012440754,3.063222703842039,1.2583057392117916,1.9748417658131499,5.369667897862337,4305.0,2383.0,1099.0,321.0,563.0,95.0,234.0,1730.0,28.89124293785311,18.71497175141243,7.885593220338983,2.0844632768361584,4.3940677966101696,0.6923728813559321,2.1581920903954797,14.11751412429378,586.0,471.0,301.0,172.0,220.0,75.0,115.0,399.0,2.0
